Trace
Swept SA
A.19.55,N9020B
508 AB2 B25 B40 B85 DP2 DP4 EP2 FS1 FS2 MPB RTL ,01
Segment,0
Number of Points,81920
Sweep Time,0.0004096
Start Frequency,2400000000
Stop Frequency,2400000000
Average Count,0
Average Type,LogPower(Video)
RBW,3000000
RBW Filter,Gaussian
RBW Filter BW,3dB
VBW,3000000
Sweep Type,Swept
X Axis Scale,Lin
PreAmp State,Off
PreAmp Band,Low
Trigger Source,Ext1
Trigger Level,1.2
Trigger Slope,Positive
Trigger Delay,1E-06
Phase Noise Optimization,Fast
Swept If Gain,Low
FFT If Gain,Autorange
RF Coupling,AC
FFT Width,411900
Ext Ref,10000000
Input,RF
RF Calibrator,Off
Attenuation,6
Ref Level Offset,0
External Gain,0
Trace Type,Clearwrite
Detector,Normal
Trace Math,Off
Trace Math Oper1,Trace5
Trace Math Oper2,Trace6
Trace Math Offset,0
Normalize,Off
Trace Name,Trace1
X Axis Units,s
Y Axis Units,dBm
DATA
0,-69.9536209106445
5.00006103590132E-09,-69.9542388916016
1.00001220718026E-08,-69.8821563720703
1.50001831077039E-08,-69.7522735595703
2.00002441436053E-08,-69.5794677734375
2.50003051795066E-08,-69.3786239624023
3.00003662154079E-08,-69.1646194458008
3.50004272513092E-08,-68.9523468017578
4.00004882872105E-08,-68.7566833496094
4.50005493231118E-08,-68.5925064086914
5.00006103590132E-08,-68.4747161865234
5.50006713949145E-08,-68.4181823730469
6.00007324308158E-08,-68.4325561523438
6.50007934667171E-08,-68.4621124267578
7.00008545026184E-08,-68.4926452636719
7.50009155385197E-08,-68.5302505493164
8.00009765744211E-08,-68.5810089111328
8.50010376103224E-08,-68.651008605957
9.00010986462237E-08,-68.746337890625
9.5001159682125E-08,-68.8730850219727
1.00001220718026E-07,-69.0373229980469
1.05001281753928E-07,-69.2451477050781
1.10001342789829E-07,-69.5026473999023
1.1500140382573E-07,-69.8159027099609
1.20001464861632E-07,-70.1910018920898
1.25001525897533E-07,-70.634033203125
1.30001586933434E-07,-71.197868347168
1.35001647969336E-07,-71.9114303588867
1.40001709005237E-07,-72.7448883056641
1.45001770041138E-07,-73.6684112548828
1.50001831077039E-07,-74.6521530151367
1.55001892112941E-07,-75.6662902832031
1.60001953148842E-07,-76.6809921264648
1.65002014184743E-07,-77.6664047241211
1.70002075220645E-07,-78.5927124023438
1.75002136256546E-07,-79.4300689697266
1.80002197292447E-07,-80.1486434936523
1.85002258328349E-07,-80.7186050415039
1.9000231936425E-07,-81.1101150512695
1.95002380400151E-07,-81.2784194946289
2.00002441436053E-07,-81.1816253662109
2.05002502471954E-07,-80.8634185791016
2.10002563507855E-07,-80.3726959228516
2.15002624543757E-07,-79.7583160400391
2.20002685579658E-07,-79.0691680908203
2.25002746615559E-07,-78.3541259765625
2.30002807651461E-07,-77.6620788574219
2.35002868687362E-07,-77.0418930053711
2.40002929723263E-07,-76.5424499511719
2.45002990759165E-07,-76.2126312255859
2.50003051795066E-07,-76.101318359375
2.55003112830967E-07,-76.2573776245117
2.60003173866868E-07,-76.7352752685547
2.6500323490277E-07,-77.6197662353516
2.70003295938671E-07,-78.8677597045898
2.75003356974572E-07,-80.4047088623047
2.80003418010474E-07,-82.1560821533203
2.85003479046375E-07,-84.0473480224609
2.90003540082276E-07,-86.0039672851563
2.95003601118178E-07,-87.9513931274414
3.00003662154079E-07,-89.8151092529297
3.0500372318998E-07,-91.5205612182617
3.10003784225882E-07,-92.9932250976563
3.15003845261783E-07,-94.158561706543
3.20003906297684E-07,-94.9420318603516
3.25003967333586E-07,-95.2691040039063
3.30004028369487E-07,-95.1239929199219
3.35004089405388E-07,-94.5792999267578
3.4000415044129E-07,-93.6930618286133
3.45004211477191E-07,-92.523323059082
3.50004272513092E-07,-91.1281280517578
3.55004333548993E-07,-89.5655059814453
3.60004394584895E-07,-87.8935089111328
3.65004455620796E-07,-86.1701736450195
3.70004516656697E-07,-84.4535369873047
3.75004577692599E-07,-82.8016510009766
3.800046387285E-07,-81.2725372314453
3.85004699764401E-07,-79.9242553710938
3.90004760800303E-07,-78.8148345947266
3.95004821836204E-07,-77.9433898925781
4.00004882872105E-07,-77.1489410400391
4.05004943908007E-07,-76.4165115356445
4.10005004943908E-07,-75.744758605957
4.15005065979809E-07,-75.1323394775391
4.20005127015711E-07,-74.5779190063477
4.25005188051612E-07,-74.0801544189453
4.30005249087513E-07,-73.6376953125
4.35005310123415E-07,-73.2492141723633
4.40005371159316E-07,-72.9133682250977
4.45005432195217E-07,-72.6288070678711
4.50005493231119E-07,-72.3941879272461
4.5500555426702E-07,-72.2081832885742
4.60005615302921E-07,-72.0745544433594
4.65005676338822E-07,-72.0529022216797
4.70005737374724E-07,-72.1452331542969
4.75005798410625E-07,-72.3317260742188
4.80005859446526E-07,-72.5925674438477
4.85005920482428E-07,-72.9079360961914
4.90005981518329E-07,-73.2580337524414
4.9500604255423E-07,-73.6230316162109
5.00006103590132E-07,-73.9831237792969
5.05006164626033E-07,-74.318489074707
5.10006225661934E-07,-74.6093215942383
5.15006286697836E-07,-74.835807800293
5.20006347733737E-07,-74.9781265258789
5.25006408769638E-07,-75.0164642333984
5.3000646980554E-07,-74.9628067016602
5.35006530841441E-07,-74.8473968505859
5.40006591877342E-07,-74.6777954101563
5.45006652913243E-07,-74.461540222168
5.50006713949145E-07,-74.2061996459961
5.55006774985046E-07,-73.9193267822266
5.60006836020948E-07,-73.6084747314453
5.65006897056849E-07,-73.2812042236328
5.7000695809275E-07,-72.945068359375
5.75007019128651E-07,-72.6076202392578
5.80007080164553E-07,-72.2764205932617
5.85007141200454E-07,-71.9590148925781
5.90007202236355E-07,-71.662971496582
5.95007263272257E-07,-71.3816452026367
6.00007324308158E-07,-71.0760955810547
6.05007385344059E-07,-70.7495574951172
6.10007446379961E-07,-70.4088287353516
6.15007507415862E-07,-70.0606689453125
6.20007568451763E-07,-69.7118682861328
6.25007629487665E-07,-69.3692092895508
6.30007690523566E-07,-69.0394592285156
6.35007751559467E-07,-68.7294082641602
6.40007812595369E-07,-68.4458236694336
6.4500787363127E-07,-68.1954879760742
6.50007934667171E-07,-67.9851913452148
6.55007995703072E-07,-67.8217010498047
6.60008056738974E-07,-67.7112808227539
6.65008117774875E-07,-67.6504898071289
6.70008178810776E-07,-67.6331481933594
6.75008239846678E-07,-67.6542892456055
6.80008300882579E-07,-67.7089309692383
6.8500836191848E-07,-67.792106628418
6.90008422954382E-07,-67.8988418579102
6.95008483990283E-07,-68.0241546630859
7.00008545026184E-07,-68.1630859375
7.05008606062086E-07,-68.3106536865234
7.10008667097987E-07,-68.4618835449219
7.15008728133888E-07,-68.6118087768555
7.2000878916979E-07,-68.7554397583008
7.25008850205691E-07,-68.887825012207
7.30008911241592E-07,-69.0287475585938
7.35008972277494E-07,-69.1971435546875
7.40009033313395E-07,-69.3867492675781
7.45009094349296E-07,-69.5912857055664
7.50009155385198E-07,-69.8044815063477
7.55009216421099E-07,-70.0200653076172
7.60009277457E-07,-70.2317733764648
7.65009338492901E-07,-70.4333267211914
7.70009399528803E-07,-70.6184539794922
7.75009460564704E-07,-70.780891418457
7.80009521600605E-07,-70.9143676757813
7.85009582636507E-07,-71.0126037597656
7.90009643672408E-07,-71.0693359375
7.95009704708309E-07,-71.0777969360352
8.00009765744211E-07,-71.0364685058594
8.05009826780112E-07,-70.9524383544922
8.10009887816013E-07,-70.8331604003906
8.15009948851915E-07,-70.6860809326172
8.20010009887816E-07,-70.5186614990234
8.25010070923717E-07,-70.3383636474609
8.30010131959619E-07,-70.1526260375977
8.3501019299552E-07,-69.9689178466797
8.40010254031421E-07,-69.7946929931641
8.45010315067323E-07,-69.6373977661133
8.50010376103224E-07,-69.5045013427734
8.55010437139125E-07,-69.4034423828125
8.60010498175026E-07,-69.3323364257813
8.65010559210928E-07,-69.1840057373047
8.70010620246829E-07,-68.9503021240234
8.7501068128273E-07,-68.6622543334961
8.80010742318632E-07,-68.3508682250977
8.85010803354533E-07,-68.0471801757813
8.90010864390434E-07,-67.7822036743164
8.95010925426336E-07,-67.5869522094727
9.00010986462237E-07,-67.4924545288086
9.05011047498138E-07,-67.5297164916992
9.1001110853404E-07,-67.7297744750977
9.15011169569941E-07,-68.1236419677734
9.20011230605842E-07,-68.7423400878906
9.25011291641744E-07,-69.6168823242188
9.30011352677645E-07,-70.8883972167969
9.35011413713546E-07,-72.6175842285156
9.40011474749448E-07,-74.7148284912109
9.45011535785349E-07,-77.0905151367188
9.5001159682125E-07,-79.6550369262695
9.55011657857151E-07,-82.3187713623047
9.60011718893053E-07,-84.9921188354492
9.65011779928954E-07,-87.5854415893555
9.70011840964855E-07,-90.009147644043
9.75011902000757E-07,-92.1736145019531
9.80011963036658E-07,-93.9892272949219
9.85012024072559E-07,-95.3663787841797
9.90012085108461E-07,-96.215446472168
9.95012146144362E-07,-96.4719543457031
1.00001220718026E-06,-96.2029190063477
1.00501226821616E-06,-95.48388671875
1.01001232925207E-06,-94.3871078491211
1.01501239028797E-06,-92.9848403930664
1.02001245132387E-06,-91.3493576049805
1.02501251235977E-06,-89.5529098510742
1.03001257339567E-06,-87.6677551269531
1.03501263443157E-06,-85.7661514282227
1.04001269546747E-06,-83.9203567504883
1.04501275650338E-06,-82.20263671875
1.05001281753928E-06,-80.6852493286133
1.05501287857518E-06,-79.4404525756836
1.06001293961108E-06,-78.5253295898438
1.06501300064698E-06,-77.7896423339844
1.07001306168288E-06,-77.1660766601563
1.07501312271878E-06,-76.6417007446289
1.08001318375468E-06,-76.2035598754883
1.08501324479059E-06,-75.8387298583984
1.09001330582649E-06,-75.5342712402344
1.09501336686239E-06,-75.2772445678711
1.10001342789829E-06,-75.0547103881836
1.10501348893419E-06,-74.8537368774414
1.11001354997009E-06,-74.661376953125
1.11501361100599E-06,-74.4647064208984
1.1200136720419E-06,-74.2507781982422
1.1250137330778E-06,-74.0066604614258
1.1300137941137E-06,-73.760124206543
1.1350138551496E-06,-73.5443954467773
1.1400139161855E-06,-73.3547058105469
1.1450139772214E-06,-73.186279296875
1.1500140382573E-06,-73.0343475341797
1.1550140992932E-06,-72.8941345214844
1.16001416032911E-06,-72.7608642578125
1.16501422136501E-06,-72.6297607421875
1.17001428240091E-06,-72.4960632324219
1.17501434343681E-06,-72.3549957275391
1.18001440447271E-06,-72.2017822265625
1.18501446550861E-06,-72.0316543579102
1.19001452654451E-06,-71.8398284912109
1.19501458758041E-06,-71.6208114624023
1.20001464861632E-06,-71.3724517822266
1.20501470965222E-06,-71.1004180908203
1.21001477068812E-06,-70.8107757568359
1.21501483172402E-06,-70.5095748901367
1.22001489275992E-06,-70.2028884887695
1.22501495379582E-06,-69.8967514038086
1.23001501483172E-06,-69.5972442626953
1.23501507586763E-06,-69.310417175293
1.24001513690353E-06,-69.0423202514648
1.24501519793943E-06,-68.7990188598633
1.25001525897533E-06,-68.5865783691406
1.25501532001123E-06,-68.4110412597656
1.26001538104713E-06,-68.2732162475586
1.26501544208303E-06,-68.1136474609375
1.27001550311893E-06,-67.9260711669922
1.27501556415484E-06,-67.725944519043
1.28001562519074E-06,-67.5287322998047
1.28501568622664E-06,-67.3498764038086
1.29001574726254E-06,-67.2048492431641
1.29501580829844E-06,-67.1091003417969
1.30001586933434E-06,-67.0780944824219
1.30501593037024E-06,-67.1272735595703
1.31001599140614E-06,-67.2721099853516
1.31501605244205E-06,-67.5280532836914
1.32001611347795E-06,-67.9105682373047
1.32501617451385E-06,-68.4351043701172
1.33001623554975E-06,-69.1894454956055
1.33501629658565E-06,-70.2156372070313
1.34001635762155E-06,-71.4605331420898
1.34501641865745E-06,-72.870979309082
1.35001647969336E-06,-74.3938369750977
1.35501654072926E-06,-75.975944519043
1.36001660176516E-06,-77.5641555786133
1.36501666280106E-06,-79.1053237915039
1.37001672383696E-06,-80.5463027954102
1.37501678487286E-06,-81.8339385986328
1.38001684590876E-06,-82.9150848388672
1.38501690694466E-06,-83.7365951538086
1.39001696798057E-06,-84.2453155517578
1.39501702901647E-06,-84.4037322998047
1.40001709005237E-06,-84.2536087036133
1.40501715108827E-06,-83.8391647338867
1.41001721212417E-06,-83.2024765014648
1.41501727316007E-06,-82.385627746582
1.42001733419597E-06,-81.4306945800781
1.42501739523188E-06,-80.379753112793
1.43001745626778E-06,-79.2748794555664
1.43501751730368E-06,-78.1581649780273
1.44001757833958E-06,-77.0716705322266
1.44501763937548E-06,-76.057487487793
1.45001770041138E-06,-75.1576919555664
1.45501776144728E-06,-74.4143524169922
1.46001782248318E-06,-73.8615417480469
1.46501788351909E-06,-73.4213638305664
1.47001794455499E-06,-73.0547561645508
1.47501800559089E-06,-72.7507858276367
1.48001806662679E-06,-72.49853515625
1.48501812766269E-06,-72.2870788574219
1.49001818869859E-06,-72.1054840087891
1.49501824973449E-06,-71.9428405761719
1.5000183107704E-06,-71.788215637207
1.5050183718063E-06,-71.6306915283203
1.5100184328422E-06,-71.459342956543
1.5150184938781E-06,-71.2632369995117
1.520018554914E-06,-71.0314636230469
1.5250186159499E-06,-70.7530975341797
1.5300186769858E-06,-70.446044921875
1.5350187380217E-06,-70.134635925293
1.54001879905761E-06,-69.8175277709961
1.54501886009351E-06,-69.4933700561523
1.55001892112941E-06,-69.1608428955078
1.55501898216531E-06,-68.818603515625
1.56001904320121E-06,-68.4653167724609
1.56501910423711E-06,-68.0996322631836
1.57001916527301E-06,-67.7202224731445
1.57501922630891E-06,-67.3257522583008
1.58001928734482E-06,-66.9148788452148
1.58501934838072E-06,-66.4862670898438
1.59001940941662E-06,-66.03857421875
1.59501947045252E-06,-65.566535949707
1.60001953148842E-06,-65.0592651367188
1.60501959252432E-06,-64.5213241577148
1.61001965356022E-06,-63.9583854675293
1.61501971459613E-06,-63.3761215209961
1.62001977563203E-06,-62.7801971435547
1.62501983666793E-06,-62.1762924194336
1.63001989770383E-06,-61.5700759887695
1.63501995873973E-06,-60.9672241210938
1.64002001977563E-06,-60.3734016418457
1.64502008081153E-06,-59.7942848205566
1.65002014184743E-06,-59.2355461120605
1.65502020288334E-06,-58.7028579711914
1.66002026391924E-06,-58.1999435424805
1.66502032495514E-06,-57.7061538696289
1.67002038599104E-06,-57.2160797119141
1.67502044702694E-06,-56.7318382263184
1.68002050806284E-06,-56.255542755127
1.68502056909874E-06,-55.7893028259277
1.69002063013465E-06,-55.3352394104004
1.69502069117055E-06,-54.8954620361328
1.70002075220645E-06,-54.4720802307129
1.70502081324235E-06,-54.067211151123
1.71002087427825E-06,-53.6829681396484
1.71502093531415E-06,-53.3214645385742
1.72002099635005E-06,-52.9848136901855
1.72502105738595E-06,-52.6751251220703
1.73002111842186E-06,-52.3881721496582
1.73502117945776E-06,-52.1187324523926
1.74002124049366E-06,-51.8674392700195
1.74502130152956E-06,-51.6349220275879
1.75002136256546E-06,-51.4218063354492
1.75502142360136E-06,-51.2287292480469
1.76002148463726E-06,-51.0563201904297
1.76502154567316E-06,-50.9052085876465
1.77002160670907E-06,-50.7760276794434
1.77502166774497E-06,-50.6694030761719
1.78002172878087E-06,-50.5859680175781
1.78502178981677E-06,-50.5263557434082
1.79002185085267E-06,-50.4911918640137
1.79502191188857E-06,-50.4803848266602
1.80002197292447E-06,-50.4919319152832
1.80502203396038E-06,-50.525749206543
1.81002209499628E-06,-50.5819091796875
1.81502215603218E-06,-50.6604995727539
1.82002221706808E-06,-50.7615966796875
1.82502227810398E-06,-50.8852806091309
1.83002233913988E-06,-51.0316276550293
1.83502240017578E-06,-51.2007255554199
1.84002246121168E-06,-51.392650604248
1.84502252224759E-06,-51.607479095459
1.85002258328349E-06,-51.8452987670898
1.85502264431939E-06,-52.1061820983887
1.86002270535529E-06,-52.3911056518555
1.86502276639119E-06,-52.710620880127
1.87002282742709E-06,-53.0647964477539
1.87502288846299E-06,-53.4498291015625
1.8800229494989E-06,-53.8619270324707
1.8850230105348E-06,-54.297290802002
1.8900230715707E-06,-54.7521209716797
1.8950231326066E-06,-55.2226257324219
1.9000231936425E-06,-55.7050094604492
1.9050232546784E-06,-56.1954689025879
1.9100233157143E-06,-56.6902122497559
1.9150233767502E-06,-57.1854400634766
1.92002343778611E-06,-57.6773529052734
1.92502349882201E-06,-58.1621627807617
1.93002355985791E-06,-58.6595230102539
1.93502362089381E-06,-59.1869659423828
1.94002368192971E-06,-59.737491607666
1.94502374296561E-06,-60.3040962219238
1.95002380400151E-06,-60.8797836303711
1.95502386503741E-06,-61.4575500488281
1.96002392607332E-06,-62.0303955078125
1.96502398710922E-06,-62.5913238525391
1.97002404814512E-06,-63.1333312988281
1.97502410918102E-06,-63.6494140625
1.98002417021692E-06,-64.1325836181641
1.98502423125282E-06,-64.5758209228516
1.99002429228872E-06,-64.9721450805664
1.99502435332463E-06,-65.3129653930664
2.00002441436053E-06,-65.59375
2.00502447539643E-06,-65.8232192993164
2.01002453643233E-06,-66.0108032226563
2.01502459746823E-06,-66.1659164428711
2.02002465850413E-06,-66.297981262207
2.02502471954003E-06,-66.4164199829102
2.03002478057593E-06,-66.5306396484375
2.03502484161184E-06,-66.6500854492188
2.04002490264774E-06,-66.7841491699219
2.04502496368364E-06,-66.9422760009766
2.05002502471954E-06,-67.1338729858398
2.05502508575544E-06,-67.3683700561523
2.06002514679134E-06,-67.6560211181641
2.06502520782724E-06,-68.010498046875
2.07002526886315E-06,-68.4234390258789
2.07502532989905E-06,-68.8814468383789
2.08002539093495E-06,-69.3710861206055
2.08502545197085E-06,-69.8789443969727
2.09002551300675E-06,-70.3915939331055
2.09502557404265E-06,-70.8956298828125
2.10002563507855E-06,-71.3776245117188
2.10502569611445E-06,-71.8241577148438
2.11002575715036E-06,-72.221809387207
2.11502581818626E-06,-72.5571670532227
2.12002587922216E-06,-72.8168029785156
2.12502594025806E-06,-72.9872970581055
2.13002600129396E-06,-73.0735397338867
2.13502606232986E-06,-73.0937957763672
2.14002612336576E-06,-73.0547790527344
2.14502618440166E-06,-72.9631729125977
2.15002624543757E-06,-72.8256759643555
2.15502630647347E-06,-72.6489791870117
2.16002636750937E-06,-72.4397888183594
2.16502642854527E-06,-72.2047882080078
2.17002648958117E-06,-71.9506759643555
2.17502655061707E-06,-71.6841583251953
2.18002661165297E-06,-71.4119110107422
2.18502667268888E-06,-71.1406478881836
2.19002673372478E-06,-70.8770523071289
2.19502679476068E-06,-70.6117095947266
2.20002685579658E-06,-70.3003845214844
2.20502691683248E-06,-69.9487609863281
2.21002697786838E-06,-69.5666122436523
2.21502703890428E-06,-69.163703918457
2.22002709994018E-06,-68.7498092651367
2.22502716097609E-06,-68.3346939086914
2.23002722201199E-06,-67.9281311035156
2.23502728304789E-06,-67.5398941040039
2.24002734408379E-06,-67.1797561645508
2.24502740511969E-06,-66.8574752807617
2.25002746615559E-06,-66.5828323364258
2.25502752719149E-06,-66.365592956543
2.2600275882274E-06,-66.2119827270508
2.2650276492633E-06,-66.083984375
2.2700277102992E-06,-65.9722747802734
2.2750277713351E-06,-65.88134765625
2.280027832371E-06,-65.8156967163086
2.2850278934069E-06,-65.7798080444336
2.2900279544428E-06,-65.7781753540039
2.2950280154787E-06,-65.815299987793
2.30002807651461E-06,-65.8956680297852
2.30502813755051E-06,-66.0237731933594
2.31002819858641E-06,-66.2041015625
2.31502825962231E-06,-66.4411544799805
2.32002832065821E-06,-66.7394256591797
2.32502838169411E-06,-67.103401184082
2.33002844273001E-06,-67.5872344970703
2.33502850376592E-06,-68.2224884033203
2.34002856480182E-06,-68.9797973632813
2.34502862583772E-06,-69.8297729492188
2.35002868687362E-06,-70.743034362793
2.35502874790952E-06,-71.6902160644531
2.36002880894542E-06,-72.6419219970703
2.36502886998132E-06,-73.5687789916992
2.37002893101722E-06,-74.4414138793945
2.37502899205313E-06,-75.2304458618164
2.38002905308903E-06,-75.906494140625
2.38502911412493E-06,-76.4401779174805
2.39002917516083E-06,-76.802116394043
2.39502923619673E-06,-76.9713134765625
2.40002929723263E-06,-76.970085144043
2.40502935826853E-06,-76.8230895996094
2.41002941930443E-06,-76.5538940429688
2.41502948034034E-06,-76.1860427856445
2.42002954137624E-06,-75.7430801391602
2.42502960241214E-06,-75.2485656738281
2.43002966344804E-06,-74.7260360717773
2.43502972448394E-06,-74.1990585327148
2.44002978551984E-06,-73.6911773681641
2.44502984655574E-06,-73.2259368896484
2.45002990759165E-06,-72.8268966674805
2.45502996862755E-06,-72.5176010131836
2.46003002966345E-06,-72.3154220581055
2.46503009069935E-06,-72.1568145751953
2.47003015173525E-06,-72.0196533203125
