Trace
Swept SA
A.19.55,N9020B
508 AB2 B25 B40 B85 DP2 DP4 EP2 FS1 FS2 MPB RTL ,01
Segment,0
Number of Points,81920
Sweep Time,0.0004096
Start Frequency,2400000000
Stop Frequency,2400000000
Average Count,0
Average Type,LogPower(Video)
RBW,3000000
RBW Filter,Gaussian
RBW Filter BW,3dB
VBW,3000000
Sweep Type,Swept
X Axis Scale,Lin
PreAmp State,Off
PreAmp Band,Low
Trigger Source,Ext1
Trigger Level,1.2
Trigger Slope,Positive
Trigger Delay,1E-06
Phase Noise Optimization,Fast
Swept If Gain,Low
FFT If Gain,Autorange
RF Coupling,AC
FFT Width,411900
Ext Ref,10000000
Input,RF
RF Calibrator,Off
Attenuation,6
Ref Level Offset,0
External Gain,0
Trace Type,Clearwrite
Detector,Normal
Trace Math,Off
Trace Math Oper1,Trace5
Trace Math Oper2,Trace6
Trace Math Offset,0
Normalize,Off
Trace Name,Trace1
X Axis Units,s
Y Axis Units,dBm
DATA
0,-41.5513343811035
5.00006103590132E-09,-42.0398445129395
1.00001220718026E-08,-42.5499534606934
1.50001831077039E-08,-43.0712852478027
2.00002441436053E-08,-43.593448638916
2.50003051795066E-08,-44.1060638427734
3.00003662154079E-08,-44.5987434387207
3.50004272513092E-08,-45.0611038208008
4.00004882872105E-08,-45.4827613830566
4.50005493231118E-08,-45.8533325195313
5.00006103590132E-08,-46.1624336242676
5.50006713949145E-08,-46.3996810913086
6.00007324308158E-08,-46.5545272827148
6.50007934667171E-08,-46.6210517883301
7.00008545026184E-08,-46.6085662841797
7.50009155385197E-08,-46.5286445617676
8.00009765744211E-08,-46.3928527832031
8.50010376103224E-08,-46.2127647399902
9.00010986462237E-08,-45.9999542236328
9.5001159682125E-08,-45.7659873962402
1.00001220718026E-07,-45.5224418640137
1.05001281753928E-07,-45.2808799743652
1.10001342789829E-07,-45.0528793334961
1.1500140382573E-07,-44.8500099182129
1.20001464861632E-07,-44.6838455200195
1.25001525897533E-07,-44.5659484863281
1.30001586933434E-07,-44.4744491577148
1.35001647969336E-07,-44.3816375732422
1.40001709005237E-07,-44.2903366088867
1.45001770041138E-07,-44.2033729553223
1.50001831077039E-07,-44.1235694885254
1.55001892112941E-07,-44.0537528991699
1.60001953148842E-07,-43.9967460632324
1.65002014184743E-07,-43.9553756713867
1.70002075220645E-07,-43.9324684143066
1.75002136256546E-07,-43.9308433532715
1.80002197292447E-07,-43.9533309936523
1.85002258328349E-07,-44.0027542114258
1.9000231936425E-07,-44.0819358825684
1.95002380400151E-07,-44.1961441040039
2.00002441436053E-07,-44.3521728515625
2.05002502471954E-07,-44.5450706481934
2.10002563507855E-07,-44.7691116333008
2.15002624543757E-07,-45.0185775756836
2.20002685579658E-07,-45.2877388000488
2.25002746615559E-07,-45.5708847045898
2.30002807651461E-07,-45.8622817993164
2.35002868687362E-07,-46.1562118530273
2.40002929723263E-07,-46.4469528198242
2.45002990759165E-07,-46.7287864685059
2.50003051795066E-07,-46.9959831237793
2.55003112830967E-07,-47.2428245544434
2.60003173866868E-07,-47.4656944274902
2.6500323490277E-07,-47.6871337890625
2.70003295938671E-07,-47.9126167297363
2.75003356974572E-07,-48.139404296875
2.80003418010474E-07,-48.3647727966309
2.85003479046375E-07,-48.5859794616699
2.90003540082276E-07,-48.8003005981445
2.95003601118178E-07,-49.004997253418
3.00003662154079E-07,-49.197338104248
3.0500372318998E-07,-49.3745918273926
3.10003784225882E-07,-49.5340270996094
3.15003845261783E-07,-49.6729049682617
3.20003906297684E-07,-49.7884979248047
3.25003967333586E-07,-49.8780708312988
3.30004028369487E-07,-49.9315376281738
3.35004089405388E-07,-49.945140838623
3.4000415044129E-07,-49.9256286621094
3.45004211477191E-07,-49.8797569274902
3.50004272513092E-07,-49.8142776489258
3.55004333548993E-07,-49.7359428405762
3.60004394584895E-07,-49.6515045166016
3.65004455620796E-07,-49.5677223205566
3.70004516656697E-07,-49.491340637207
3.75004577692599E-07,-49.4291152954102
3.800046387285E-07,-49.3878021240234
3.85004699764401E-07,-49.3741493225098
3.90004760800303E-07,-49.3949127197266
3.95004821836204E-07,-49.4530448913574
4.00004882872105E-07,-49.5382270812988
4.05004943908007E-07,-49.6462936401367
4.10005004943908E-07,-49.7738304138184
4.15005065979809E-07,-49.9174270629883
4.20005127015711E-07,-50.0736694335938
4.25005188051612E-07,-50.2391548156738
4.30005249087513E-07,-50.4104614257813
4.35005310123415E-07,-50.5841865539551
4.40005371159316E-07,-50.7569198608398
4.45005432195217E-07,-50.9252433776855
4.50005493231119E-07,-51.085750579834
4.5500555426702E-07,-51.2350311279297
4.60005615302921E-07,-51.3708419799805
4.65005676338822E-07,-51.5055885314941
4.70005737374724E-07,-51.6425247192383
4.75005798410625E-07,-51.7803802490234
4.80005859446526E-07,-51.9178848266602
4.85005920482428E-07,-52.053783416748
4.90005981518329E-07,-52.1867980957031
4.9500604255423E-07,-52.315673828125
5.00006103590132E-07,-52.439136505127
5.05006164626033E-07,-52.5559234619141
5.10006225661934E-07,-52.6647682189941
5.15006286697836E-07,-52.7644081115723
5.20006347733737E-07,-52.853572845459
5.25006408769638E-07,-52.9309959411621
5.3000646980554E-07,-52.9820213317871
5.35006530841441E-07,-52.998161315918
5.40006591877342E-07,-52.9874000549316
5.45006652913243E-07,-52.9577217102051
5.50006713949145E-07,-52.9171180725098
5.55006774985046E-07,-52.8735694885254
5.60006836020948E-07,-52.8350639343262
5.65006897056849E-07,-52.8095893859863
5.7000695809275E-07,-52.8051338195801
5.75007019128651E-07,-52.8296775817871
5.80007080164553E-07,-52.8912124633789
5.85007141200454E-07,-52.9977226257324
5.90007202236355E-07,-53.1571960449219
5.95007263272257E-07,-53.3845252990723
6.00007324308158E-07,-53.6989593505859
6.05007385344059E-07,-54.0864868164063
6.10007446379961E-07,-54.5309143066406
6.15007507415862E-07,-55.0160484313965
6.20007568451763E-07,-55.5257034301758
6.25007629487665E-07,-56.0436820983887
6.30007690523566E-07,-56.5537948608398
6.35007751559467E-07,-57.0398559570313
6.40007812595369E-07,-57.4856643676758
6.4500787363127E-07,-57.8750381469727
6.50007934667171E-07,-58.191780090332
6.55007995703072E-07,-58.4197006225586
6.60008056738974E-07,-58.5442581176758
6.65008117774875E-07,-58.5784606933594
6.70008178810776E-07,-58.5371322631836
6.75008239846678E-07,-58.4304504394531
6.80008300882579E-07,-58.2686080932617
6.8500836191848E-07,-58.0617866516113
6.90008422954382E-07,-57.8201751708984
6.95008483990283E-07,-57.5539588928223
7.00008545026184E-07,-57.2733268737793
7.05008606062086E-07,-56.9884567260742
7.10008667097987E-07,-56.7095413208008
7.15008728133888E-07,-56.4467658996582
7.2000878916979E-07,-56.210319519043
7.25008850205691E-07,-56.0103797912598
7.30008911241592E-07,-55.8257904052734
7.35008972277494E-07,-55.6308670043945
7.40009033313395E-07,-55.429027557373
7.45009094349296E-07,-55.2236824035645
7.50009155385198E-07,-55.0182456970215
7.55009216421099E-07,-54.8161315917969
7.60009277457E-07,-54.6207542419434
7.65009338492901E-07,-54.4355278015137
7.70009399528803E-07,-54.2638664245605
7.75009460564704E-07,-54.1091804504395
7.80009521600605E-07,-53.9748840332031
7.85009582636507E-07,-53.8643951416016
7.90009643672408E-07,-53.7811241149902
7.95009704708309E-07,-53.7293930053711
8.00009765744211E-07,-53.7117919921875
8.05009826780112E-07,-53.7239570617676
8.10009887816013E-07,-53.7611503601074
8.15009948851915E-07,-53.8186302185059
8.20010009887816E-07,-53.8916511535645
8.25010070923717E-07,-53.9754791259766
8.30010131959619E-07,-54.0653686523438
8.3501019299552E-07,-54.1565780639648
8.40010254031421E-07,-54.2443695068359
8.45010315067323E-07,-54.3240013122559
8.50010376103224E-07,-54.3907318115234
8.55010437139125E-07,-54.4398155212402
8.60010498175026E-07,-54.4674224853516
8.65010559210928E-07,-54.4823226928711
8.70010620246829E-07,-54.4889183044434
8.7501068128273E-07,-54.4884414672852
8.80010742318632E-07,-54.4821243286133
8.85010803354533E-07,-54.4711952209473
8.90010864390434E-07,-54.4568862915039
8.95010925426336E-07,-54.4404335021973
9.00010986462237E-07,-54.4230651855469
9.05011047498138E-07,-54.4060096740723
9.1001110853404E-07,-54.3905067443848
9.15011169569941E-07,-54.3777809143066
9.20011230605842E-07,-54.3690643310547
9.25011291641744E-07,-54.365592956543
9.30011352677645E-07,-54.3399238586426
9.35011413713546E-07,-54.2721366882324
9.40011474749448E-07,-54.1747550964355
9.45011535785349E-07,-54.0602951049805
9.5001159682125E-07,-53.9412727355957
9.55011657857151E-07,-53.8302040100098
9.60011718893053E-07,-53.7396049499512
9.65011779928954E-07,-53.6819953918457
9.70011840964855E-07,-53.6698913574219
9.75011902000757E-07,-53.7158126831055
9.80011963036658E-07,-53.8322715759277
9.85012024072559E-07,-54.0317840576172
9.90012085108461E-07,-54.3268737792969
9.95012146144362E-07,-54.7517051696777
1.00001220718026E-06,-55.3662605285645
1.00501226821616E-06,-56.1399688720703
1.01001232925207E-06,-57.0359230041504
1.01501239028797E-06,-58.0172119140625
1.02001245132387E-06,-59.046932220459
1.02501251235977E-06,-60.0881767272949
1.03001257339567E-06,-61.1040382385254
1.03501263443157E-06,-62.0576095581055
1.04001269546747E-06,-62.9119834899902
1.04501275650338E-06,-63.630256652832
1.05001281753928E-06,-64.1755142211914
1.05501287857518E-06,-64.5108642578125
1.06001293961108E-06,-64.6010894775391
1.06501300064698E-06,-64.4517135620117
1.07001306168288E-06,-64.09619140625
1.07501312271878E-06,-63.5662612915039
1.08001318375468E-06,-62.893669128418
1.08501324479059E-06,-62.1101531982422
1.09001330582649E-06,-61.2474517822266
1.09501336686239E-06,-60.3373107910156
1.10001342789829E-06,-59.4114608764648
1.10501348893419E-06,-58.5016555786133
1.11001354997009E-06,-57.6396255493164
1.11501361100599E-06,-56.8571128845215
1.1200136720419E-06,-56.185863494873
1.1250137330778E-06,-55.6576118469238
1.1300137941137E-06,-55.230884552002
1.1350138551496E-06,-54.8422050476074
1.1400139161855E-06,-54.4902992248535
1.1450139772214E-06,-54.173900604248
1.1500140382573E-06,-53.8917388916016
1.1550140992932E-06,-53.6425399780273
1.16001416032911E-06,-53.4250373840332
1.16501422136501E-06,-53.237964630127
1.17001428240091E-06,-53.0800476074219
1.17501434343681E-06,-52.9500198364258
1.18001440447271E-06,-52.846607208252
1.18501446550861E-06,-52.7685432434082
1.19001452654451E-06,-52.7145614624023
1.19501458758041E-06,-52.692066192627
1.20001464861632E-06,-52.724967956543
1.20501470965222E-06,-52.8077049255371
1.21001477068812E-06,-52.9324264526367
1.21501483172402E-06,-53.0912818908691
1.22001489275992E-06,-53.2764205932617
1.22501495379582E-06,-53.4799957275391
1.23001501483172E-06,-53.694149017334
1.23501507586763E-06,-53.9110412597656
1.24001513690353E-06,-54.1228103637695
1.24501519793943E-06,-54.3216133117676
1.25001525897533E-06,-54.4995994567871
1.25501532001123E-06,-54.6489105224609
1.26001538104713E-06,-54.7633895874023
1.26501544208303E-06,-54.8597526550293
1.27001550311893E-06,-54.9453201293945
1.27501556415484E-06,-55.0213584899902
1.28001562519074E-06,-55.0891265869141
1.28501568622664E-06,-55.1498947143555
1.29001574726254E-06,-55.2049217224121
1.29501580829844E-06,-55.2554740905762
1.30001586933434E-06,-55.3028182983398
1.30501593037024E-06,-55.3482131958008
1.31001599140614E-06,-55.3929252624512
1.31501605244205E-06,-55.4382209777832
1.32001611347795E-06,-55.4853630065918
1.32501617451385E-06,-55.5356101989746
1.33001623554975E-06,-55.5617446899414
1.33501629658565E-06,-55.5439491271973
1.34001635762155E-06,-55.4946212768555
1.34501641865745E-06,-55.4261512756348
1.35001647969336E-06,-55.3509292602539
1.35501654072926E-06,-55.2813453674316
1.36001660176516E-06,-55.229793548584
1.36501666280106E-06,-55.2086639404297
1.37001672383696E-06,-55.2303504943848
1.37501678487286E-06,-55.3072395324707
1.38001684590876E-06,-55.4517288208008
1.38501690694466E-06,-55.6762084960938
1.39001696798057E-06,-55.9930648803711
1.39501702901647E-06,-56.4373168945313
1.40001709005237E-06,-57.0716247558594
1.40501715108827E-06,-57.8647766113281
1.41001721212417E-06,-58.7789649963379
1.41501727316007E-06,-59.7763862609863
1.42001733419597E-06,-60.8192367553711
1.42501739523188E-06,-61.8697090148926
1.43001745626778E-06,-62.8899993896484
1.43501751730368E-06,-63.8423080444336
1.44001757833958E-06,-64.6888275146484
1.44501763937548E-06,-65.3917541503906
1.45001770041138E-06,-65.9132766723633
1.45501776144728E-06,-66.2156066894531
1.46001782248318E-06,-66.2622909545898
1.46501788351909E-06,-66.0545883178711
1.47001794455499E-06,-65.6267013549805
1.47501800559089E-06,-65.0127029418945
1.48001806662679E-06,-64.2466583251953
1.48501812766269E-06,-63.3626441955566
1.49001818869859E-06,-62.394718170166
1.49501824973449E-06,-61.3769569396973
1.5000183107704E-06,-60.3434257507324
1.5050183718063E-06,-59.328197479248
1.5100184328422E-06,-58.3653335571289
1.5150184938781E-06,-57.4889068603516
1.520018554914E-06,-56.7329902648926
1.5250186159499E-06,-56.1316452026367
1.5300186769858E-06,-55.6494407653809
1.5350187380217E-06,-55.2243728637695
1.54001879905761E-06,-54.8506660461426
1.54501886009351E-06,-54.5225372314453
1.55001892112941E-06,-54.234203338623
1.55501898216531E-06,-53.9798812866211
1.56001904320121E-06,-53.7537956237793
1.56501910423711E-06,-53.5501670837402
1.57001916527301E-06,-53.3632049560547
1.57501922630891E-06,-53.1871376037598
1.58001928734482E-06,-53.0161819458008
1.58501934838072E-06,-52.844554901123
1.59001940941662E-06,-52.6664772033691
1.59501947045252E-06,-52.4899444580078
1.60001953148842E-06,-52.3527908325195
1.60501959252432E-06,-52.2502174377441
1.61001965356022E-06,-52.1739196777344
1.61501971459613E-06,-52.1156120300293
1.62001977563203E-06,-52.0669898986816
1.62501983666793E-06,-52.0197677612305
1.63001989770383E-06,-51.9656448364258
1.63501995873973E-06,-51.8963241577148
1.64002001977563E-06,-51.8035163879395
1.64502008081153E-06,-51.6789245605469
1.65002014184743E-06,-51.5142478942871
1.65502020288334E-06,-51.3012008666992
1.66002026391924E-06,-51.0323371887207
1.66502032495514E-06,-50.7144966125488
1.67002038599104E-06,-50.3552665710449
1.67502044702694E-06,-49.9598083496094
1.68002050806284E-06,-49.5332832336426
1.68502056909874E-06,-49.0808525085449
1.69002063013465E-06,-48.6076736450195
1.69502069117055E-06,-48.1189117431641
1.70002075220645E-06,-47.6197204589844
1.70502081324235E-06,-47.1152687072754
1.71002087427825E-06,-46.610710144043
1.71502093531415E-06,-46.1112098693848
1.72002099635005E-06,-45.6219253540039
1.72502105738595E-06,-45.1480178833008
1.73002111842186E-06,-44.6737823486328
1.73502117945776E-06,-44.1828346252441
1.74002124049366E-06,-43.6793327331543
1.74502130152956E-06,-43.1674308776855
1.75002136256546E-06,-42.6512832641602
1.75502142360136E-06,-42.1350517272949
1.76002148463726E-06,-41.6228790283203
1.76502154567316E-06,-41.1189308166504
1.77002160670907E-06,-40.6273574829102
1.77502166774497E-06,-40.1523170471191
1.78002172878087E-06,-39.6979598999023
1.78502178981677E-06,-39.2684440612793
1.79002185085267E-06,-38.8679237365723
1.79502191188857E-06,-38.4948081970215
1.80002197292447E-06,-38.1333808898926
1.80502203396038E-06,-37.7837715148926
1.81002209499628E-06,-37.4475173950195
1.81502215603218E-06,-37.1261444091797
1.82002221706808E-06,-36.8211784362793
1.82502227810398E-06,-36.5341491699219
1.83002233913988E-06,-36.2665863037109
1.83502240017578E-06,-36.0200157165527
1.84002246121168E-06,-35.7959671020508
1.84502252224759E-06,-35.5959663391113
1.85002258328349E-06,-35.4215469360352
1.85502264431939E-06,-35.2742309570313
1.86002270535529E-06,-35.1547203063965
1.86502276639119E-06,-35.0538635253906
1.87002282742709E-06,-34.9701538085938
1.87502288846299E-06,-34.9054260253906
1.8800229494989E-06,-34.8615226745605
1.8850230105348E-06,-34.840274810791
1.8900230715707E-06,-34.8435211181641
1.8950231326066E-06,-34.8730964660645
1.9000231936425E-06,-34.9308395385742
1.9050232546784E-06,-35.0185813903809
1.9100233157143E-06,-35.1381607055664
1.9150233767502E-06,-35.2914161682129
1.92002343778611E-06,-35.4801788330078
1.92502349882201E-06,-35.7062911987305
1.93002355985791E-06,-35.9634017944336
1.93502362089381E-06,-36.2451782226563
1.94002368192971E-06,-36.553466796875
1.94502374296561E-06,-36.8901138305664
1.95002380400151E-06,-37.2569580078125
1.95502386503741E-06,-37.6558532714844
1.96002392607332E-06,-38.0886383056641
1.96502398710922E-06,-38.5571594238281
1.97002404814512E-06,-39.0632667541504
1.97502410918102E-06,-39.6088027954102
1.98002417021692E-06,-40.1956100463867
1.98502423125282E-06,-40.8255386352539
1.99002429228872E-06,-41.500431060791
1.99502435332463E-06,-42.248607635498
2.00002441436053E-06,-43.1430740356445
2.00502447539643E-06,-44.1608009338379
2.01002453643233E-06,-45.2715263366699
2.01502459746823E-06,-46.4450073242188
2.02002465850413E-06,-47.6509895324707
2.02502471954003E-06,-48.8592185974121
2.03002478057593E-06,-50.0394477844238
2.03502484161184E-06,-51.1614227294922
2.04002490264774E-06,-52.1948928833008
2.04502496368364E-06,-53.1096076965332
2.05002502471954E-06,-53.875316619873
2.05502508575544E-06,-54.4617652893066
2.06002514679134E-06,-54.8407287597656
2.06502520782724E-06,-55.0241775512695
2.07002526886315E-06,-55.0396194458008
2.07502532989905E-06,-54.910457611084
2.08002539093495E-06,-54.6600723266602
2.08502545197085E-06,-54.3118667602539
2.09002551300675E-06,-53.8892211914063
2.09502557404265E-06,-53.4155349731445
2.10002563507855E-06,-52.9141998291016
2.10502569611445E-06,-52.4085998535156
2.11002575715036E-06,-51.9221343994141
2.11502581818626E-06,-51.4781913757324
2.12002587922216E-06,-51.1001625061035
2.12502594025806E-06,-50.8114395141602
2.13002600129396E-06,-50.5744438171387
2.13502606232986E-06,-50.3376502990723
2.14002612336576E-06,-50.1035346984863
2.14502618440166E-06,-49.8745803833008
2.15002624543757E-06,-49.6532592773438
2.15502630647347E-06,-49.4420471191406
2.16002636750937E-06,-49.2434234619141
2.16502642854527E-06,-49.0598678588867
2.17002648958117E-06,-48.8938522338867
2.17502655061707E-06,-48.747859954834
2.18002661165297E-06,-48.6243591308594
2.18502667268888E-06,-48.5258331298828
2.19002673372478E-06,-48.4547576904297
2.19502679476068E-06,-48.4148178100586
2.20002685579658E-06,-48.4093971252441
2.20502691683248E-06,-48.4349021911621
2.21002697786838E-06,-48.4873008728027
2.21502703890428E-06,-48.5625762939453
2.22002709994018E-06,-48.6567001342773
2.22502716097609E-06,-48.7656517028809
2.23002722201199E-06,-48.8854026794434
2.23502728304789E-06,-49.0119361877441
2.24002734408379E-06,-49.1412200927734
2.24502740511969E-06,-49.2692375183105
2.25002746615559E-06,-49.391960144043
2.25502752719149E-06,-49.5053672790527
2.2600275882274E-06,-49.6064949035645
2.2650276492633E-06,-49.7062683105469
2.2700277102992E-06,-49.8084754943848
2.2750277713351E-06,-49.9129295349121
2.280027832371E-06,-50.0194435119629
2.2850278934069E-06,-50.1278419494629
2.2900279544428E-06,-50.2379379272461
2.2950280154787E-06,-50.3495483398438
2.30002807651461E-06,-50.4624862670898
2.30502813755051E-06,-50.5765762329102
2.31002819858641E-06,-50.6916275024414
2.31502825962231E-06,-50.8074607849121
2.32002832065821E-06,-50.9238929748535
2.32502838169411E-06,-51.0407409667969
2.33002844273001E-06,-51.1673622131348
2.33502850376592E-06,-51.3102989196777
2.34002856480182E-06,-51.4651069641113
2.34502862583772E-06,-51.6273651123047
2.35002868687362E-06,-51.7926406860352
2.35502874790952E-06,-51.9564971923828
2.36002880894542E-06,-52.1145057678223
2.36502886998132E-06,-52.2622375488281
2.37002893101722E-06,-52.3952598571777
2.37502899205313E-06,-52.5091438293457
2.38002905308903E-06,-52.5994529724121
2.38502911412493E-06,-52.6617584228516
2.39002917516083E-06,-52.6916275024414
2.39502923619673E-06,-52.6861305236816
2.40002929723263E-06,-52.649284362793
2.40502935826853E-06,-52.5846176147461
2.41002941930443E-06,-52.495433807373
2.41502948034034E-06,-52.3850364685059
2.42002954137624E-06,-52.256721496582
2.42502960241214E-06,-52.1137924194336
2.43002966344804E-06,-51.9595527648926
2.43502972448394E-06,-51.7972984313965
2.44002978551984E-06,-51.6303367614746
2.44502984655574E-06,-51.4619636535645
2.45002990759165E-06,-51.295482635498
2.45502996862755E-06,-51.1341972351074
2.46003002966345E-06,-50.9793395996094
2.46503009069935E-06,-50.8079452514648
