Trace
Swept SA
A.19.55,N9020B
508 AB2 B25 B40 B85 DP2 DP4 EP2 FS1 FS2 MPB RTL ,01
Segment,0
Number of Points,81920
Sweep Time,0.0004096
Start Frequency,2400000000
Stop Frequency,2400000000
Average Count,0
Average Type,LogPower(Video)
RBW,3000000
RBW Filter,Gaussian
RBW Filter BW,3dB
VBW,3000000
Sweep Type,Swept
X Axis Scale,Lin
PreAmp State,Off
PreAmp Band,Low
Trigger Source,Ext1
Trigger Level,1.2
Trigger Slope,Positive
Trigger Delay,1E-06
Phase Noise Optimization,Fast
Swept If Gain,Low
FFT If Gain,Autorange
RF Coupling,AC
FFT Width,411900
Ext Ref,10000000
Input,RF
RF Calibrator,Off
Attenuation,6
Ref Level Offset,0
External Gain,0
Trace Type,Clearwrite
Detector,Normal
Trace Math,Off
Trace Math Oper1,Trace5
Trace Math Oper2,Trace6
Trace Math Offset,0
Normalize,Off
Trace Name,Trace1
X Axis Units,s
Y Axis Units,dBm
DATA
0,-45.8307800292969
5.00006103590132E-09,-46.0025901794434
1.00001220718026E-08,-46.109447479248
1.50001831077039E-08,-46.159107208252
2.00002441436053E-08,-46.1593322753906
2.50003051795066E-08,-46.1178894042969
3.00003662154079E-08,-46.0425300598145
3.50004272513092E-08,-45.9410209655762
4.00004882872105E-08,-45.8211250305176
4.50005493231118E-08,-45.690601348877
5.00006103590132E-08,-45.5572128295898
5.50006713949145E-08,-45.4287147521973
6.00007324308158E-08,-45.3092041015625
6.50007934667171E-08,-45.1585388183594
7.00008545026184E-08,-44.9691734313965
7.50009155385197E-08,-44.7481880187988
8.00009765744211E-08,-44.5026702880859
8.50010376103224E-08,-44.2397003173828
9.00010986462237E-08,-43.966365814209
9.5001159682125E-08,-43.6897430419922
1.00001220718026E-07,-43.4169158935547
1.05001281753928E-07,-43.1549758911133
1.10001342789829E-07,-42.9109954833984
1.1500140382573E-07,-42.692066192627
1.20001464861632E-07,-42.5052642822266
1.25001525897533E-07,-42.3576774597168
1.30001586933434E-07,-42.2354927062988
1.35001647969336E-07,-42.1214599609375
1.40001709005237E-07,-42.017520904541
1.45001770041138E-07,-41.9256019592285
1.50001831077039E-07,-41.8476409912109
1.55001892112941E-07,-41.7855682373047
1.60001953148842E-07,-41.741325378418
1.65002014184743E-07,-41.7168350219727
1.70002075220645E-07,-41.714038848877
1.75002136256546E-07,-41.7348709106445
1.80002197292447E-07,-41.7812576293945
1.85002258328349E-07,-41.8551406860352
1.9000231936425E-07,-41.9584541320801
1.95002380400151E-07,-42.0963134765625
2.00002441436053E-07,-42.2775688171387
2.05002502471954E-07,-42.497615814209
2.10002563507855E-07,-42.7509155273438
2.15002624543757E-07,-43.0319366455078
2.20002685579658E-07,-43.3351364135742
2.25002746615559E-07,-43.6549758911133
2.30002807651461E-07,-43.9859275817871
2.35002868687362E-07,-44.3224449157715
2.40002929723263E-07,-44.658992767334
2.45002990759165E-07,-44.9900360107422
2.50003051795066E-07,-45.3100395202637
2.55003112830967E-07,-45.6134605407715
2.60003173866868E-07,-45.8960304260254
2.6500323490277E-07,-46.1704788208008
2.70003295938671E-07,-46.4419784545898
2.75003356974572E-07,-46.7110977172852
2.80003418010474E-07,-46.9783897399902
2.85003479046375E-07,-47.2444229125977
2.90003540082276E-07,-47.5097541809082
2.95003601118178E-07,-47.7749519348145
3.00003662154079E-07,-48.0405693054199
3.0500372318998E-07,-48.3071746826172
3.10003784225882E-07,-48.5753288269043
3.15003845261783E-07,-48.8455924987793
3.20003906297684E-07,-49.1185264587402
3.25003967333586E-07,-49.3946952819824
3.30004028369487E-07,-49.6793937683105
3.35004089405388E-07,-49.9755821228027
3.4000415044129E-07,-50.2802963256836
3.45004211477191E-07,-50.5905838012695
3.50004272513092E-07,-50.9034805297852
3.55004333548993E-07,-51.2160339355469
3.60004394584895E-07,-51.5252838134766
3.65004455620796E-07,-51.8282737731934
3.70004516656697E-07,-52.1220436096191
3.75004577692599E-07,-52.403636932373
3.800046387285E-07,-52.6700973510742
3.85004699764401E-07,-52.9184646606445
3.90004760800303E-07,-53.1457824707031
3.95004821836204E-07,-53.3530921936035
4.00004882872105E-07,-53.5513687133789
4.05004943908007E-07,-53.7405662536621
4.10005004943908E-07,-53.9196968078613
4.15005065979809E-07,-54.0877532958984
4.20005127015711E-07,-54.2437400817871
4.25005188051612E-07,-54.3866577148438
4.30005249087513E-07,-54.5155067443848
4.35005310123415E-07,-54.6292915344238
4.40005371159316E-07,-54.7270088195801
4.45005432195217E-07,-54.8076591491699
4.50005493231119E-07,-54.870246887207
4.5500555426702E-07,-54.9137725830078
4.60005615302921E-07,-54.9338150024414
4.65005676338822E-07,-54.8897094726563
4.70005737374724E-07,-54.7818260192871
4.75005798410625E-07,-54.625431060791
4.80005859446526E-07,-54.435791015625
4.85005920482428E-07,-54.2281646728516
4.90005981518329E-07,-54.0178184509277
4.9500604255423E-07,-53.8200187683105
5.00006103590132E-07,-53.6500244140625
5.05006164626033E-07,-53.5231018066406
5.10006225661934E-07,-53.4545135498047
5.15006286697836E-07,-53.4595222473145
5.20006347733737E-07,-53.5533981323242
5.25006408769638E-07,-53.7513961791992
5.3000646980554E-07,-54.0938301086426
5.35006530841441E-07,-54.5908813476563
5.40006591877342E-07,-55.2126274108887
5.45006652913243E-07,-55.929141998291
5.50006713949145E-07,-56.710506439209
5.55006774985046E-07,-57.5268020629883
5.60006836020948E-07,-58.3481025695801
5.65006897056849E-07,-59.1444854736328
5.7000695809275E-07,-59.8860282897949
5.75007019128651E-07,-60.5428123474121
5.80007080164553E-07,-61.0849151611328
5.85007141200454E-07,-61.4824104309082
5.90007202236355E-07,-61.705379486084
5.95007263272257E-07,-61.7336845397949
6.00007324308158E-07,-61.5935363769531
6.05007385344059E-07,-61.3090553283691
6.10007446379961E-07,-60.9028816223145
6.15007507415862E-07,-60.3976593017578
6.20007568451763E-07,-59.8160362243652
6.25007629487665E-07,-59.1806488037109
6.30007690523566E-07,-58.5141448974609
6.35007751559467E-07,-57.8391723632813
6.40007812595369E-07,-57.1783638000488
6.4500787363127E-07,-56.5543746948242
6.50007934667171E-07,-55.9898414611816
6.55007995703072E-07,-55.5074119567871
6.60008056738974E-07,-55.1240577697754
6.65008117774875E-07,-54.7819862365723
6.70008178810776E-07,-54.4599609375
6.75008239846678E-07,-54.1577072143555
6.80008300882579E-07,-53.8749580383301
6.8500836191848E-07,-53.611442565918
6.90008422954382E-07,-53.366886138916
6.95008483990283E-07,-53.1410217285156
7.00008545026184E-07,-52.9335784912109
7.05008606062086E-07,-52.7442855834961
7.10008667097987E-07,-52.5728721618652
7.15008728133888E-07,-52.4190673828125
7.2000878916979E-07,-52.282600402832
7.25008850205691E-07,-52.163200378418
7.30008911241592E-07,-52.0752296447754
7.35008972277494E-07,-52.028694152832
7.40009033313395E-07,-52.016788482666
7.45009094349296E-07,-52.03271484375
7.50009155385198E-07,-52.0696601867676
7.55009216421099E-07,-52.1208267211914
7.60009277457E-07,-52.1794090270996
7.65009338492901E-07,-52.2386054992676
7.70009399528803E-07,-52.2916069030762
7.75009460564704E-07,-52.3316078186035
7.80009521600605E-07,-52.3518142700195
7.85009582636507E-07,-52.3454093933105
7.90009643672408E-07,-52.3055992126465
7.95009704708309E-07,-52.229175567627
8.00009765744211E-07,-52.1258964538574
8.05009826780112E-07,-52.0001449584961
8.10009887816013E-07,-51.8556060791016
8.15009948851915E-07,-51.6959609985352
8.20010009887816E-07,-51.5248947143555
8.25010070923717E-07,-51.3460884094238
8.30010131959619E-07,-51.1632232666016
8.3501019299552E-07,-50.9799842834473
8.40010254031421E-07,-50.8000526428223
8.45010315067323E-07,-50.6271133422852
8.50010376103224E-07,-50.46484375
8.55010437139125E-07,-50.3169288635254
8.60010498175026E-07,-50.1829528808594
8.65010559210928E-07,-50.0161514282227
8.70010620246829E-07,-49.812572479248
8.7501068128273E-07,-49.5853691101074
8.80010742318632E-07,-49.3476867675781
8.85010803354533E-07,-49.1126670837402
8.90010864390434E-07,-48.8934593200684
8.95010925426336E-07,-48.7032051086426
9.00010986462237E-07,-48.5550575256348
9.05011047498138E-07,-48.462158203125
9.1001110853404E-07,-48.4376525878906
9.15011169569941E-07,-48.494686126709
9.20011230605842E-07,-48.6464080810547
9.25011291641744E-07,-48.9059600830078
9.30011352677645E-07,-49.3273887634277
9.35011413713546E-07,-49.9325256347656
9.40011474749448E-07,-50.6861915588379
9.45011535785349E-07,-51.5532150268555
9.5001159682125E-07,-52.4984245300293
9.55011657857151E-07,-53.486644744873
9.60011718893053E-07,-54.4827041625977
9.65011779928954E-07,-55.4514236450195
9.70011840964855E-07,-56.3576316833496
9.75011902000757E-07,-57.1661605834961
9.80011963036658E-07,-57.8418273925781
9.85012024072559E-07,-58.3494644165039
9.90012085108461E-07,-58.6538925170898
9.95012146144362E-07,-58.7322044372559
1.00001220718026E-06,-58.6172904968262
1.00501226821616E-06,-58.3369026184082
1.01001232925207E-06,-57.9168510437012
1.01501239028797E-06,-57.3829460144043
1.02001245132387E-06,-56.7610015869141
1.02501251235977E-06,-56.0768280029297
1.03001257339567E-06,-55.3562393188477
1.03501263443157E-06,-54.6250457763672
1.04001269546747E-06,-53.9090576171875
1.04501275650338E-06,-53.2340888977051
1.05001281753928E-06,-52.6259536743164
1.05501287857518E-06,-52.1104583740234
1.06001293961108E-06,-51.7066688537598
1.06501300064698E-06,-51.345272064209
1.07001306168288E-06,-51.0020217895508
1.07501312271878E-06,-50.6778182983398
1.08001318375468E-06,-50.3735580444336
1.08501324479059E-06,-50.0901374816895
1.09001330582649E-06,-49.8284606933594
1.09501336686239E-06,-49.589427947998
1.10001342789829E-06,-49.3739356994629
1.10501348893419E-06,-49.1828804016113
1.11001354997009E-06,-49.0171699523926
1.11501361100599E-06,-48.8776969909668
1.1200136720419E-06,-48.7653656005859
1.1250137330778E-06,-48.6810722351074
1.1300137941137E-06,-48.6394271850586
1.1350138551496E-06,-48.6492958068848
1.1400139161855E-06,-48.7029685974121
1.1450139772214E-06,-48.7927284240723
1.1500140382573E-06,-48.9108543395996
1.1550140992932E-06,-49.0496368408203
1.16001416032911E-06,-49.201358795166
1.16501422136501E-06,-49.3582992553711
1.17001428240091E-06,-49.5127487182617
1.17501434343681E-06,-49.6569900512695
1.18001440447271E-06,-49.7833099365234
1.18501446550861E-06,-49.8839874267578
1.19001452654451E-06,-49.9513092041016
1.19501458758041E-06,-49.9839744567871
1.20001464861632E-06,-49.9994697570801
1.20501470965222E-06,-50.0009117126465
1.21001477068812E-06,-49.9899940490723
1.21501483172402E-06,-49.9684104919434
1.22001489275992E-06,-49.9378509521484
1.22501495379582E-06,-49.9000091552734
1.23001501483172E-06,-49.856575012207
1.23501507586763E-06,-49.8092422485352
1.24001513690353E-06,-49.7597007751465
1.24501519793943E-06,-49.7096481323242
1.25001525897533E-06,-49.6607666015625
1.25501532001123E-06,-49.6147575378418
1.26001538104713E-06,-49.5695114135742
1.26501544208303E-06,-49.4810066223145
1.27001550311893E-06,-49.3471374511719
1.27501556415484E-06,-49.1819000244141
1.28001562519074E-06,-48.9992866516113
1.28501568622664E-06,-48.8132820129395
1.29001574726254E-06,-48.6378860473633
1.29501580829844E-06,-48.4870910644531
1.30001586933434E-06,-48.3748817443848
1.30501593037024E-06,-48.315258026123
1.31001599140614E-06,-48.3222122192383
1.31501605244205E-06,-48.4097328186035
1.32001611347795E-06,-48.5918121337891
1.32501617451385E-06,-48.8824424743652
1.33001623554975E-06,-49.3337287902832
1.33501629658565E-06,-49.9652404785156
1.34001635762155E-06,-50.7421760559082
1.34501641865745E-06,-51.6297378540039
1.35001647969336E-06,-52.5931243896484
1.35501654072926E-06,-53.5975341796875
1.36001660176516E-06,-54.6081619262695
1.36501666280106E-06,-55.5902137756348
1.37001672383696E-06,-56.5088882446289
1.37501678487286E-06,-57.3293800354004
1.38001684590876E-06,-58.0168876647949
1.38501690694466E-06,-58.5366172790527
1.39001696798057E-06,-58.8537635803223
1.39501702901647E-06,-58.9457588195801
1.40001709005237E-06,-58.8454437255859
1.40501715108827E-06,-58.5801849365234
1.41001721212417E-06,-58.175407409668
1.41501727316007E-06,-57.6565399169922
1.42001733419597E-06,-57.0490112304688
1.42501739523188E-06,-56.3782424926758
1.43001745626778E-06,-55.6696701049805
1.43501751730368E-06,-54.9487113952637
1.44001757833958E-06,-54.240795135498
1.44501763937548E-06,-53.5713500976563
1.45001770041138E-06,-52.9658012390137
1.45501776144728E-06,-52.449577331543
1.46001782248318E-06,-52.0421562194824
1.46501788351909E-06,-51.6834945678711
1.47001794455499E-06,-51.3498153686523
1.47501800559089E-06,-51.0390930175781
1.48001806662679E-06,-50.7493095397949
1.48501812766269E-06,-50.478443145752
1.49001818869859E-06,-50.2244758605957
1.49501824973449E-06,-49.9853858947754
1.5000183107704E-06,-49.7591552734375
1.5050183718063E-06,-49.5437622070313
1.5100184328422E-06,-49.3371849060059
1.5150184938781E-06,-49.1374053955078
1.520018554914E-06,-48.9424018859863
1.5250186159499E-06,-48.7501564025879
1.5300186769858E-06,-48.5793724060059
1.5350187380217E-06,-48.4449577331543
1.54001879905761E-06,-48.339168548584
1.54501886009351E-06,-48.2542686462402
1.55001892112941E-06,-48.1825256347656
1.55501898216531E-06,-48.1161956787109
1.56001904320121E-06,-48.0475463867188
1.56501910423711E-06,-47.9688415527344
1.57001916527301E-06,-47.8723411560059
1.57501922630891E-06,-47.7503089904785
1.58001928734482E-06,-47.5950088500977
1.58501934838072E-06,-47.3987007141113
1.59001940941662E-06,-47.1536521911621
1.59501947045252E-06,-46.8553581237793
1.60001953148842E-06,-46.5125350952148
1.60501959252432E-06,-46.1308631896973
1.61001965356022E-06,-45.715446472168
1.61501971459613E-06,-45.2713813781738
1.62001977563203E-06,-44.803783416748
1.62501983666793E-06,-44.3177528381348
1.63001989770383E-06,-43.8183937072754
1.63501995873973E-06,-43.3108100891113
1.64002001977563E-06,-42.800106048584
1.64502008081153E-06,-42.291389465332
1.65002014184743E-06,-41.7897644042969
1.65502020288334E-06,-41.3003349304199
1.66002026391924E-06,-40.8259544372559
1.66502032495514E-06,-40.3421478271484
1.67002038599104E-06,-39.8439788818359
1.67502044702694E-06,-39.3354225158691
1.68002050806284E-06,-38.8204612731934
1.68502056909874E-06,-38.3030738830566
1.69002063013465E-06,-37.787239074707
1.69502069117055E-06,-37.2769355773926
1.70002075220645E-06,-36.7761421203613
1.70502081324235E-06,-36.2888412475586
1.71002087427825E-06,-35.8190078735352
1.71502093531415E-06,-35.3706245422363
1.72002099635005E-06,-34.9476699829102
1.72502105738595E-06,-34.5541191101074
1.73002111842186E-06,-34.1818237304688
1.73502117945776E-06,-33.8208236694336
1.74002124049366E-06,-33.4723968505859
1.74502130152956E-06,-33.1378211975098
1.75002136256546E-06,-32.8183822631836
1.75502142360136E-06,-32.5153541564941
1.76002148463726E-06,-32.2300148010254
1.76502154567316E-06,-31.9636459350586
1.77002160670907E-06,-31.7175254821777
1.77502166774497E-06,-31.4929332733154
1.78002172878087E-06,-31.291145324707
1.78502178981677E-06,-31.1134433746338
1.79002185085267E-06,-30.9611072540283
1.79502191188857E-06,-30.8334121704102
1.80002197292447E-06,-30.7248764038086
1.80502203396038E-06,-30.6357269287109
1.81002209499628E-06,-30.566686630249
1.81502215603218E-06,-30.5184707641602
1.82002221706808E-06,-30.4918022155762
1.82502227810398E-06,-30.4873962402344
1.83002233913988E-06,-30.5059719085693
1.83502240017578E-06,-30.5482521057129
1.84002246121168E-06,-30.6149520874023
1.84502252224759E-06,-30.7067928314209
1.85002258328349E-06,-30.8244934082031
1.85502264431939E-06,-30.968770980835
1.86002270535529E-06,-31.1401023864746
1.86502276639119E-06,-31.3359184265137
1.87002282742709E-06,-31.555534362793
1.87502288846299E-06,-31.7992000579834
1.8800229494989E-06,-32.0671691894531
1.8850230105348E-06,-32.3596878051758
1.8900230715707E-06,-32.6770133972168
1.8950231326066E-06,-33.0193939208984
1.9000231936425E-06,-33.3870811462402
1.9050232546784E-06,-33.7803230285645
1.9100233157143E-06,-34.1993789672852
1.9150233767502E-06,-34.6444892883301
1.92002343778611E-06,-35.1159133911133
1.92502349882201E-06,-35.613899230957
1.93002355985791E-06,-36.1605567932129
1.93502362089381E-06,-36.7705421447754
1.94002368192971E-06,-37.432933807373
1.94502374296561E-06,-38.1368026733398
1.95002380400151E-06,-38.8712272644043
1.95502386503741E-06,-39.6252746582031
1.96002392607332E-06,-40.3880271911621
1.96502398710922E-06,-41.148551940918
1.97002404814512E-06,-41.8959312438965
1.97502410918102E-06,-42.6192321777344
1.98002417021692E-06,-43.3075370788574
1.98502423125282E-06,-43.9499130249023
1.99002429228872E-06,-44.5354347229004
1.99502435332463E-06,-45.0684204101563
2.00002441436053E-06,-45.5905914306641
2.00502447539643E-06,-46.1014671325684
2.01002453643233E-06,-46.5968856811523
2.01502459746823E-06,-47.072681427002
2.02002465850413E-06,-47.5246925354004
2.02502471954003E-06,-47.9487533569336
2.03002478057593E-06,-48.3406982421875
2.03502484161184E-06,-48.696361541748
2.04002490264774E-06,-49.0115814208984
2.04502496368364E-06,-49.2821960449219
2.05002502471954E-06,-49.504035949707
2.05502508575544E-06,-49.6729393005371
2.06002514679134E-06,-49.7838821411133
2.06502520782724E-06,-49.8250770568848
2.07002526886315E-06,-49.8001365661621
2.07502532989905E-06,-49.7170219421387
2.08002539093495E-06,-49.5836944580078
2.08502545197085E-06,-49.4081115722656
2.09002551300675E-06,-49.1982345581055
2.09502557404265E-06,-48.962028503418
2.10002563507855E-06,-48.707447052002
2.10502569611445E-06,-48.4424514770508
2.11002575715036E-06,-48.1750068664551
2.11502581818626E-06,-47.9130706787109
2.12002587922216E-06,-47.6646003723145
2.12502594025806E-06,-47.437557220459
2.13002600129396E-06,-47.2136306762695
2.13502606232986E-06,-46.9715538024902
2.14002612336576E-06,-46.7148513793945
2.14502618440166E-06,-46.4470634460449
2.15002624543757E-06,-46.1717147827148
2.15502630647347E-06,-45.892333984375
2.16002636750937E-06,-45.6124572753906
2.16502642854527E-06,-45.3356170654297
2.17002648958117E-06,-45.0653381347656
2.17502655061707E-06,-44.8051528930664
2.18002661165297E-06,-44.55859375
2.18502667268888E-06,-44.3291931152344
2.19002673372478E-06,-44.1204795837402
2.19502679476068E-06,-43.9295501708984
2.20002685579658E-06,-43.73876953125
2.20502691683248E-06,-43.5494918823242
2.21002697786838E-06,-43.3646659851074
2.21502703890428E-06,-43.1872482299805
2.22002709994018E-06,-43.0201873779297
2.22502716097609E-06,-42.8664360046387
2.23002722201199E-06,-42.7289505004883
2.23502728304789E-06,-42.6106796264648
2.24002734408379E-06,-42.514575958252
2.24502740511969E-06,-42.4435920715332
2.25002746615559E-06,-42.4006843566895
2.25502752719149E-06,-42.3887977600098
2.2600275882274E-06,-42.4099082946777
2.2650276492633E-06,-42.4536094665527
2.2700277102992E-06,-42.5171051025391
2.2750277713351E-06,-42.6013603210449
2.280027832371E-06,-42.7073554992676
2.2850278934069E-06,-42.836067199707
2.2900279544428E-06,-42.9884719848633
2.2950280154787E-06,-43.1655387878418
2.30002807651461E-06,-43.3682518005371
2.30502813755051E-06,-43.597583770752
2.31002819858641E-06,-43.8545074462891
2.31502825962231E-06,-44.1400032043457
2.32002832065821E-06,-44.4550437927246
2.32502838169411E-06,-44.8006057739258
2.33002844273001E-06,-45.2128982543945
2.33502850376592E-06,-45.7152900695801
2.34002856480182E-06,-46.2895164489746
2.34502862583772E-06,-46.9172973632813
2.35002868687362E-06,-47.5803565979004
2.35502874790952E-06,-48.2604293823242
2.36002880894542E-06,-48.9392356872559
2.36502886998132E-06,-49.5984992980957
2.37002893101722E-06,-50.2199554443359
2.37502899205313E-06,-50.7853202819824
2.38002905308903E-06,-51.2763252258301
2.38502911412493E-06,-51.6746978759766
2.39002917516083E-06,-51.962158203125
2.39502923619673E-06,-52.1261901855469
2.40002929723263E-06,-52.1821632385254
2.40502935826853E-06,-52.1449966430664
2.41002941930443E-06,-52.0287551879883
2.41502948034034E-06,-51.8475151062012
2.42002954137624E-06,-51.6153450012207
2.42502960241214E-06,-51.3463172912598
2.43002966344804E-06,-51.0545043945313
2.43502972448394E-06,-50.7539710998535
2.44002978551984E-06,-50.458797454834
2.44502984655574E-06,-50.1830520629883
2.45002990759165E-06,-49.940803527832
2.45502996862755E-06,-49.7461242675781
2.46003002966345E-06,-49.6072387695313
2.46503009069935E-06,-49.4608039855957
2.47003015173525E-06,-49.2932624816895
