Trace
Swept SA
A.19.55,N9020B
508 AB2 B25 B40 B85 DP2 DP4 EP2 FS1 FS2 MPB RTL ,01
Segment,0
Number of Points,81920
Sweep Time,0.000452266667
Start Frequency,2400000000
Stop Frequency,2400000000
Average Count,0
Average Type,LogPower(Video)
RBW,3000000
RBW Filter,Gaussian
RBW Filter BW,3dB
VBW,3000000
Sweep Type,Swept
X Axis Scale,Lin
PreAmp State,Off
PreAmp Band,Low
Trigger Source,Ext1
Trigger Level,1.2
Trigger Slope,Positive
Trigger Delay,1E-06
Phase Noise Optimization,Fast
Swept If Gain,Low
FFT If Gain,Autorange
RF Coupling,AC
FFT Width,411900
Ext Ref,10000000
Input,RF
RF Calibrator,Off
Attenuation,6
Ref Level Offset,0
External Gain,0
Trace Type,Clearwrite
Detector,Normal
Trace Math,Off
Trace Math Oper1,Trace5
Trace Math Oper2,Trace6
Trace Math Offset,0
Normalize,Off
Trace Name,Trace1
X Axis Units,s
Y Axis Units,dBm
DATA
0,-80.0953750610352
5.5209007312101E-09,-80.3776092529297
1.10418014624202E-08,-80.6344299316406
1.65627021936303E-08,-80.8662796020508
2.20836029248404E-08,-81.0735702514648
2.76045036560505E-08,-81.256721496582
3.31254043872606E-08,-81.4161682128906
3.86463051184707E-08,-81.5523376464844
4.41672058496808E-08,-81.665641784668
4.96881065808909E-08,-81.7565155029297
5.5209007312101E-08,-81.8253784179688
6.07299080433111E-08,-81.8644180297852
6.62508087745212E-08,-81.8626708984375
7.17717095057313E-08,-81.8254623413086
7.72926102369414E-08,-81.7584228515625
8.28135109681515E-08,-81.6671676635742
8.83344116993616E-08,-81.5573043823242
9.38553124305717E-08,-81.4344635009766
9.93762131617818E-08,-81.3042449951172
1.04897113892992E-07,-81.1722869873047
1.10418014624202E-07,-81.044189453125
1.15938915355412E-07,-80.9255752563477
1.21459816086622E-07,-80.8220596313477
1.26980716817832E-07,-80.7333602905273
1.32501617549042E-07,-80.648193359375
1.38022518280252E-07,-80.5649795532227
1.43543419011463E-07,-80.4825820922852
1.49064319742673E-07,-80.3998413085938
1.54585220473883E-07,-80.3156356811523
1.60106121205093E-07,-80.2288055419922
1.65627021936303E-07,-80.1382217407227
1.71147922667513E-07,-80.0427398681641
1.76668823398723E-07,-79.9412078857422
1.82189724129933E-07,-79.8324966430664
1.87710624861143E-07,-79.715461730957
1.93231525592353E-07,-79.5882720947266
1.98752426323564E-07,-79.4493179321289
2.04273327054774E-07,-79.3004531860352
2.09794227785984E-07,-79.1436920166016
2.15315128517194E-07,-78.9810485839844
2.20836029248404E-07,-78.8145523071289
2.26356929979614E-07,-78.6462173461914
2.31877830710824E-07,-78.4780654907227
2.37398731442034E-07,-78.3121109008789
2.42919632173244E-07,-78.1503829956055
2.48440532904454E-07,-77.9948959350586
2.53961433635664E-07,-77.8476715087891
2.59482334366875E-07,-77.7074127197266
2.65003235098085E-07,-77.5637054443359
2.70524135829295E-07,-77.4175415039063
2.76045036560505E-07,-77.2711639404297
2.81565937291715E-07,-77.1268005371094
2.87086838022925E-07,-76.986686706543
2.92607738754135E-07,-76.8530426025391
2.98128639485345E-07,-76.7281188964844
3.03649540216555E-07,-76.614128112793
3.09170440947765E-07,-76.513313293457
3.14691341678976E-07,-76.4278945922852
3.20212242410186E-07,-76.3601150512695
3.25733143141396E-07,-76.3101272583008
3.31254043872606E-07,-76.2693710327148
3.36774944603816E-07,-76.2376174926758
3.42295845335026E-07,-76.2160415649414
3.47816746066236E-07,-76.2058029174805
3.53337646797446E-07,-76.2080688476563
3.58858547528656E-07,-76.2239990234375
3.64379448259866E-07,-76.2547607421875
3.69900348991077E-07,-76.3015213012695
3.75421249722287E-07,-76.3654403686523
3.80942150453497E-07,-76.4476852416992
3.86463051184707E-07,-76.5494155883789
3.91983951915917E-07,-76.6711120605469
3.97504852647127E-07,-76.8089828491211
4.03025753378337E-07,-76.9625473022461
4.08546654109547E-07,-77.1321563720703
4.14067554840757E-07,-77.3181457519531
4.19588455571967E-07,-77.520881652832
4.25109356303178E-07,-77.7406997680664
4.30630257034388E-07,-77.9779510498047
4.36151157765598E-07,-78.2329864501953
4.41672058496808E-07,-78.5061492919922
4.47192959228018E-07,-78.7977905273438
4.52713859959228E-07,-79.1082534790039
4.58234760690438E-07,-79.4411163330078
4.63755661421648E-07,-79.8233413696289
4.69276562152858E-07,-80.252197265625
4.74797462884068E-07,-80.7167739868164
4.80318363615278E-07,-81.2061996459961
4.85839264346489E-07,-81.7095565795898
4.91360165077699E-07,-82.2159576416016
4.96881065808909E-07,-82.7145156860352
5.02401966540119E-07,-83.1943206787109
5.07922867271329E-07,-83.6444931030273
5.13443768002539E-07,-84.0541305541992
5.18964668733749E-07,-84.4123382568359
5.24485569464959E-07,-84.7101287841797
5.30006470196169E-07,-84.9670181274414
5.3552737092738E-07,-85.1925888061523
5.4104827165859E-07,-85.3888549804688
5.465691723898E-07,-85.5578384399414
5.5209007312101E-07,-85.701545715332
5.5761097385222E-07,-85.8219833374023
5.6313187458343E-07,-85.9211807250977
5.6865277531464E-07,-86.0011367797852
5.7417367604585E-07,-86.0638732910156
5.7969457677706E-07,-86.1114044189453
5.8521547750827E-07,-86.1457366943359
5.90736378239481E-07,-86.1679229736328
5.96257278970691E-07,-86.1591339111328
6.01778179701901E-07,-86.1158905029297
6.07299080433111E-07,-86.0441970825195
6.12819981164321E-07,-85.9500503540039
6.18340881895531E-07,-85.8394622802734
6.23861782626741E-07,-85.7184295654297
6.29382683357951E-07,-85.5929641723633
6.34903584089161E-07,-85.4690551757813
6.40424484820371E-07,-85.3527145385742
6.45945385551581E-07,-85.2499465942383
6.51466286282792E-07,-85.166748046875
6.56987187014002E-07,-85.1083984375
6.62508087745212E-07,-85.0488357543945
6.68028988476422E-07,-84.977180480957
6.73549889207632E-07,-84.8999099731445
6.79070789938842E-07,-84.8235015869141
6.84591690670052E-07,-84.7544174194336
6.90112591401262E-07,-84.6991424560547
6.95633492132472E-07,-84.6641540527344
7.01154392863682E-07,-84.6559143066406
7.06675293594893E-07,-84.6809158325195
7.12196194326103E-07,-84.7456207275391
7.17717095057313E-07,-84.8565063476563
7.23237995788523E-07,-85.0200500488281
7.28758896519733E-07,-85.2402572631836
7.34279797250943E-07,-85.5123825073242
7.39800697982153E-07,-85.8297805786133
7.45321598713363E-07,-86.1858139038086
7.50842499444573E-07,-86.5738525390625
7.56363400175783E-07,-86.9872436523438
7.61884300906994E-07,-87.4193649291992
7.67405201638204E-07,-87.8635635375977
7.72926102369414E-07,-88.3132019042969
7.78447003100624E-07,-88.7616500854492
7.83967903831834E-07,-89.202262878418
7.89488804563044E-07,-89.62841796875
7.95009705294254E-07,-90.079475402832
8.00530606025464E-07,-90.5849914550781
8.06051506756674E-07,-91.1287689208984
8.11572407487884E-07,-91.694580078125
8.17093308219094E-07,-92.2662353515625
8.22614208950305E-07,-92.827522277832
8.28135109681515E-07,-93.3622283935547
8.33656010412725E-07,-93.8541488647461
8.39176911143935E-07,-94.2870712280273
8.44697811875145E-07,-94.6447982788086
8.50218712606355E-07,-94.9111099243164
8.55739613337565E-07,-95.0698013305664
8.61260514068775E-07,-95.1102752685547
8.66781414799985E-07,-95.0432739257813
8.72302315531195E-07,-94.8843612670898
8.77823216262406E-07,-94.6491165161133
8.83344116993616E-07,-94.3530883789063
8.88865017724826E-07,-94.011848449707
8.94385918456036E-07,-93.6409683227539
8.99906819187246E-07,-93.2559967041016
9.05427719918456E-07,-92.8725128173828
9.10948620649666E-07,-92.5060653686523
9.16469521380876E-07,-92.172233581543
9.21990422112086E-07,-91.8865737915039
9.27511322843296E-07,-91.6398773193359
9.33032223574507E-07,-91.3979949951172
9.38553124305717E-07,-91.1600494384766
9.44074025036927E-07,-90.9256744384766
9.49594925768137E-07,-90.6944961547852
9.55115826499347E-07,-90.4661560058594
9.60636727230557E-07,-90.2402877807617
9.66157627961767E-07,-90.0165328979492
9.71678528692977E-07,-89.7945251464844
9.77199429424187E-07,-89.5738906860352
9.82720330155397E-07,-89.3542785644531
9.88241230886608E-07,-89.1353149414063
9.93762131617818E-07,-88.9151611328125
9.99283032349028E-07,-88.6914138793945
1.00480393308024E-06,-88.4656219482422
1.01032483381145E-06,-88.2394561767578
1.01584573454266E-06,-88.0145797729492
1.02136663527387E-06,-87.7926635742188
1.02688753600508E-06,-87.5753707885742
1.03240843673629E-06,-87.3643646240234
1.0379293374675E-06,-87.1613159179688
1.04345023819871E-06,-86.9678955078125
1.04897113892992E-06,-86.785758972168
1.05449203966113E-06,-86.616584777832
1.06001294039234E-06,-86.4611434936523
1.06553384112355E-06,-86.3173980712891
1.07105474185476E-06,-86.1842727661133
1.07657564258597E-06,-86.0608062744141
1.08209654331718E-06,-85.9460144042969
1.08761744404839E-06,-85.8389511108398
1.0931383447796E-06,-85.7386245727539
1.09865924551081E-06,-85.6440887451172
1.10418014624202E-06,-85.5543594360352
1.10970104697323E-06,-85.4684829711914
1.11522194770444E-06,-85.3854751586914
1.12074284843565E-06,-85.3043823242188
1.12626374916686E-06,-85.2241058349609
1.13178464989807E-06,-85.1441955566406
1.13730555062928E-06,-85.0658264160156
1.14282645136049E-06,-84.9902191162109
1.1483473520917E-06,-84.9186325073242
1.15386825282291E-06,-84.852294921875
1.15938915355412E-06,-84.7924652099609
1.16491005428533E-06,-84.7403717041016
1.17043095501654E-06,-84.6972579956055
1.17595185574775E-06,-84.6643676757813
1.18147275647896E-06,-84.642951965332
1.18699365721017E-06,-84.6342391967773
1.19251455794138E-06,-84.6410980224609
1.19803545867259E-06,-84.6701583862305
1.2035563594038E-06,-84.7185287475586
1.20907726013501E-06,-84.7822189331055
1.21459816086622E-06,-84.8572387695313
1.22011906159743E-06,-84.939582824707
1.22563996232864E-06,-85.025260925293
1.23116086305985E-06,-85.1102828979492
1.23668176379106E-06,-85.1906433105469
1.24220266452227E-06,-85.2623519897461
1.24772356525348E-06,-85.3214111328125
1.25324446598469E-06,-85.3638305664063
1.2587653667159E-06,-85.3891067504883
1.26428626744711E-06,-85.4153747558594
1.26980716817832E-06,-85.4431838989258
1.27532806890953E-06,-85.4693145751953
1.28084896964074E-06,-85.4905624389648
1.28636987037195E-06,-85.5037307739258
1.29189077110316E-06,-85.5056076049805
1.29741167183437E-06,-85.4929962158203
1.30293257256558E-06,-85.4626770019531
1.30845347329679E-06,-85.4114532470703
1.313974374028E-06,-85.3361129760742
1.31949527475921E-06,-85.2334594726563
1.32501617549042E-06,-85.0994415283203
1.33053707622163E-06,-84.926628112793
1.33605797695284E-06,-84.7187881469727
1.34157887768405E-06,-84.4818649291992
1.34709977841526E-06,-84.2218170166016
1.35262067914647E-06,-83.9445953369141
1.35814157987768E-06,-83.6561584472656
1.36366248060889E-06,-83.3624420166016
1.3691833813401E-06,-83.0694198608398
1.37470428207131E-06,-82.7830276489258
1.38022518280252E-06,-82.5092315673828
1.38574608353373E-06,-82.2539672851563
1.39126698426494E-06,-82.0215835571289
1.39678788499615E-06,-81.7961578369141
1.40230878572736E-06,-81.5728225708008
1.40782968645858E-06,-81.3524551391602
1.41335058718979E-06,-81.1359405517578
1.418871487921E-06,-80.9241714477539
1.42439238865221E-06,-80.7180328369141
1.42991328938342E-06,-80.5184173583984
1.43543419011463E-06,-80.3262023925781
1.44095509084584E-06,-80.1422805786133
1.44647599157705E-06,-79.967529296875
1.45199689230826E-06,-79.802848815918
1.45751779303947E-06,-79.6486892700195
1.46303869377068E-06,-79.4978637695313
1.46855959450189E-06,-79.3491363525391
1.4740804952331E-06,-79.2046432495117
1.47960139596431E-06,-79.0665512084961
1.48512229669552E-06,-78.93701171875
1.49064319742673E-06,-78.8181686401367
1.49616409815794E-06,-78.7121810913086
1.50168499888915E-06,-78.6211929321289
1.50720589962036E-06,-78.5473709106445
1.51272680035157E-06,-78.4928512573242
1.51824770108278E-06,-78.4598007202148
1.52376860181399E-06,-78.4504776000977
1.5292895025452E-06,-78.4697036743164
1.53481040327641E-06,-78.5163955688477
1.54033130400762E-06,-78.5867538452148
1.54585220473883E-06,-78.6769866943359
1.55137310547004E-06,-78.7832946777344
1.55689400620125E-06,-78.9018859863281
1.56241490693246E-06,-79.0289611816406
1.56793580766367E-06,-79.1607284545898
1.57345670839488E-06,-79.2933959960938
1.57897760912609E-06,-79.4231643676758
1.5844985098573E-06,-79.5462341308594
1.59001941058851E-06,-79.6591796875
1.59554031131972E-06,-79.7908630371094
1.60106121205093E-06,-79.9540863037109
1.60658211278214E-06,-80.1385040283203
1.61210301351335E-06,-80.3337707519531
1.61762391424456E-06,-80.5295486450195
1.62314481497577E-06,-80.7154998779297
1.62866571570698E-06,-80.8812713623047
1.63418661643819E-06,-81.0165328979492
1.6397075171694E-06,-81.1109390258789
1.64522841790061E-06,-81.1541519165039
1.65074931863182E-06,-81.1358184814453
1.65627021936303E-06,-81.0456085205078
1.66179112009424E-06,-80.8771438598633
1.66731202082545E-06,-80.6377334594727
1.67283292155666E-06,-80.3376846313477
1.67835382228787E-06,-79.9872665405273
1.68387472301908E-06,-79.5967712402344
1.68939562375029E-06,-79.1764907836914
1.6949165244815E-06,-78.7367095947266
1.70043742521271E-06,-78.287712097168
1.70595832594392E-06,-77.8397827148438
1.71147922667513E-06,-77.403205871582
1.71700012740634E-06,-76.9882736206055
1.72252102813755E-06,-76.6052780151367
1.72804192886876E-06,-76.2383651733398
1.73356282959997E-06,-75.8629913330078
1.73908373033118E-06,-75.4822845458984
1.74460463106239E-06,-75.0994110107422
1.7501255317936E-06,-74.7175369262695
1.75564643252481E-06,-74.3398284912109
1.76116733325602E-06,-73.9694595336914
1.76668823398723E-06,-73.6095886230469
1.77220913471844E-06,-73.2633819580078
1.77773003544965E-06,-72.9340133666992
1.78325093618086E-06,-72.624641418457
1.78877183691207E-06,-72.3384399414063
1.79429273764328E-06,-72.0734405517578
1.79981363837449E-06,-71.8229904174805
1.8053345391057E-06,-71.5868530273438
1.81085543983691E-06,-71.3648529052734
1.81637634056812E-06,-71.1568145751953
1.82189724129933E-06,-70.9625854492188
1.82741814203054E-06,-70.781982421875
1.83293904276175E-06,-70.6148452758789
1.83845994349296E-06,-70.4610061645508
1.84398084422417E-06,-70.3202819824219
1.84950174495538E-06,-70.1925201416016
1.85502264568659E-06,-70.0775375366211
1.8605435464178E-06,-69.9769821166992
1.86606444714901E-06,-69.8936767578125
1.87158534788022E-06,-69.8264541625977
1.87710624861143E-06,-69.7740325927734
1.88262714934264E-06,-69.7351531982422
1.88814805007385E-06,-69.7085342407227
1.89366895080506E-06,-69.6929168701172
1.89918985153627E-06,-69.6870193481445
1.90471075226748E-06,-69.6895751953125
1.91023165299869E-06,-69.6993179321289
1.9157525537299E-06,-69.714973449707
1.92127345446111E-06,-69.7352676391602
1.92679435519232E-06,-69.7615814208984
1.93231525592353E-06,-69.7994918823242
1.93783615665474E-06,-69.8481979370117
1.94335705738595E-06,-69.9065475463867
1.94887795811716E-06,-69.9733734130859
1.95439885884837E-06,-70.0475311279297
1.95991975957958E-06,-70.1278610229492
1.9654406603108E-06,-70.2132186889648
1.970961561042E-06,-70.3024444580078
1.97648246177322E-06,-70.3943939208984
1.98200336250443E-06,-70.4878997802734
1.98752426323564E-06,-70.5818252563477
1.99304516396685E-06,-70.6761169433594
1.99856606469806E-06,-70.7738342285156
2.00408696542927E-06,-70.8751907348633
2.00960786616048E-06,-70.9801330566406
2.01512876689169E-06,-71.0886077880859
2.0206496676229E-06,-71.2005462646484
2.02617056835411E-06,-71.3159027099609
2.03169146908532E-06,-71.4346237182617
2.03721236981653E-06,-71.5566482543945
2.04273327054774E-06,-71.6819152832031
2.04825417127895E-06,-71.8103713989258
2.05377507201016E-06,-71.9419631958008
2.05929597274137E-06,-72.0762023925781
2.06481687347258E-06,-72.2114562988281
2.07033777420379E-06,-72.3482131958008
2.075858674935E-06,-72.4872131347656
2.08137957566621E-06,-72.6291656494141
2.08690047639742E-06,-72.7748107910156
2.09242137712863E-06,-72.9248657226563
2.09794227785984E-06,-73.0800704956055
2.10346317859105E-06,-73.2411422729492
2.10898407932226E-06,-73.4088134765625
2.11450498005347E-06,-73.5838088989258
2.12002588078468E-06,-73.7668609619141
2.12554678151589E-06,-73.9605407714844
2.1310676822471E-06,-74.1742477416992
2.13658858297831E-06,-74.4054412841797
2.14210948370952E-06,-74.6496276855469
2.14763038444073E-06,-74.9023361206055
2.15315128517194E-06,-75.1590881347656
2.15867218590315E-06,-75.415397644043
2.16419308663436E-06,-75.6667861938477
2.16971398736557E-06,-75.9087829589844
2.17523488809678E-06,-76.1369018554688
2.18075578882799E-06,-76.3466720581055
2.1862766895592E-06,-76.5335998535156
2.19179759029041E-06,-76.6948318481445
2.19731849102162E-06,-76.8403091430664
2.20283939175283E-06,-76.9729156494141
2.20836029248404E-06,-77.0930557250977
2.21388119321525E-06,-77.2011337280273
2.21940209394646E-06,-77.2975616455078
2.22492299467767E-06,-77.3827438354492
2.23044389540888E-06,-77.4570846557617
2.23596479614009E-06,-77.5209884643555
2.2414856968713E-06,-77.5748596191406
2.24700659760251E-06,-77.6191101074219
2.25252749833372E-06,-77.6541366577148
2.25804839906493E-06,-77.6786956787109
2.26356929979614E-06,-77.6761703491211
2.26909020052735E-06,-77.6470260620117
2.27461110125856E-06,-77.5974273681641
2.28013200198977E-06,-77.5335311889648
2.28565290272098E-06,-77.4615097045898
2.29117380345219E-06,-77.3875122070313
2.2966947041834E-06,-77.3177032470703
2.30221560491461E-06,-77.2582550048828
2.30773650564582E-06,-77.2153167724609
2.31325740637703E-06,-77.1950607299805
2.31877830710824E-06,-77.2036437988281
2.32429920783945E-06,-77.2465744018555
2.32982010857066E-06,-77.3163757324219
2.33534100930187E-06,-77.4072570800781
2.34086191003308E-06,-77.5168685913086
2.34638281076429E-06,-77.6428451538086
2.3519037114955E-06,-77.7828369140625
2.35742461222671E-06,-77.9344711303711
2.36294551295792E-06,-78.0953903198242
2.36846641368913E-06,-78.2632446289063
2.37398731442034E-06,-78.4356536865234
2.37950821515155E-06,-78.6102752685547
2.38502911588276E-06,-78.7847442626953
2.39055001661397E-06,-78.957405090332
2.39607091734518E-06,-79.1467361450195
2.40159181807639E-06,-79.3575592041016
2.4071127188076E-06,-79.5840530395508
2.41263361953881E-06,-79.8204116821289
2.41815452027002E-06,-80.0608215332031
2.42367542100123E-06,-80.2994842529297
2.42919632173244E-06,-80.5305862426758
2.43471722246365E-06,-80.7483139038086
2.44023812319486E-06,-80.9468688964844
2.44575902392607E-06,-81.1204299926758
2.45127992465728E-06,-81.2631988525391
2.45680082538849E-06,-81.3694229125977
2.4623217261197E-06,-81.4398574829102
2.46784262685091E-06,-81.480094909668
2.47336352758212E-06,-81.494255065918
2.47888442831333E-06,-81.4864654541016
2.48440532904454E-06,-81.4608535766602
2.48992622977575E-06,-81.4215393066406
2.49544713050696E-06,-81.3726501464844
2.50096803123817E-06,-81.3183135986328
2.50648893196938E-06,-81.2626495361328
2.51200983270059E-06,-81.2097778320313
2.5175307334318E-06,-81.1638412475586
2.52305163416301E-06,-81.1288986206055
2.52857253489422E-06,-81.0932998657227
2.53409343562543E-06,-81.0475845336914
2.53961433635665E-06,-80.9945983886719
2.54513523708785E-06,-80.9371871948242
2.55065613781907E-06,-80.8782043457031
2.55617703855028E-06,-80.8204956054688
2.56169793928149E-06,-80.7669143676758
2.5672188400127E-06,-80.7202987670898
2.57273974074391E-06,-80.6835098266602
2.57826064147512E-06,-80.6593856811523
2.58378154220633E-06,-80.6507873535156
2.58930244293754E-06,-80.6605453491211
2.59482334366875E-06,-80.6826400756836
2.60034424439996E-06,-80.7095413208008
2.60586514513117E-06,-80.7428817749023
2.61138604586238E-06,-80.7843246459961
2.61690694659359E-06,-80.8354873657227
2.6224278473248E-06,-80.8980255126953
2.62794874805601E-06,-80.9735794067383
2.63346964878722E-06,-81.0637893676758
2.63899054951843E-06,-81.170295715332
2.64451145024964E-06,-81.2947387695313
2.65003235098085E-06,-81.4387664794922
2.65555325171206E-06,-81.6040115356445
2.66107415244327E-06,-81.7928695678711
2.66659505317448E-06,-82.0055999755859
2.67211595390569E-06,-82.2398147583008
2.6776368546369E-06,-82.4931259155273
2.68315775536811E-06,-82.7631378173828
2.68867865609932E-06,-83.0474472045898
2.69419955683053E-06,-83.3436660766602
2.69972045756174E-06,-83.6493835449219
2.70524135829295E-06,-83.9622192382813
2.71076225902416E-06,-84.2797622680664
2.71628315975537E-06,-84.5996246337891
2.72180406048658E-06,-84.9194107055664
