Trace
Swept SA
A.19.55,N9020B
508 AB2 B25 B40 B85 DP2 DP4 EP2 FS1 FS2 MPB RTL ,01
Segment,0
Number of Points,81920
Sweep Time,0.0004096
Start Frequency,2400000000
Stop Frequency,2400000000
Average Count,0
Average Type,LogPower(Video)
RBW,3000000
RBW Filter,Gaussian
RBW Filter BW,3dB
VBW,3000000
Sweep Type,Swept
X Axis Scale,Lin
PreAmp State,Off
PreAmp Band,Low
Trigger Source,Ext1
Trigger Level,1.2
Trigger Slope,Positive
Trigger Delay,1E-06
Phase Noise Optimization,Fast
Swept If Gain,Low
FFT If Gain,Autorange
RF Coupling,AC
FFT Width,411900
Ext Ref,10000000
Input,RF
RF Calibrator,Off
Attenuation,6
Ref Level Offset,0
External Gain,0
Trace Type,Clearwrite
Detector,Normal
Trace Math,Off
Trace Math Oper1,Trace5
Trace Math Oper2,Trace6
Trace Math Offset,0
Normalize,Off
Trace Name,Trace1
X Axis Units,s
Y Axis Units,dBm
DATA
0,-75.3889694213867
5.00006103590132E-09,-75.3611450195313
1.00001220718026E-08,-75.1184768676758
1.50001831077039E-08,-74.6990127563477
2.00002441436053E-08,-74.1408157348633
2.50003051795066E-08,-73.4819564819336
3.00003662154079E-08,-72.7604904174805
3.50004272513092E-08,-72.0144882202148
4.00004882872105E-08,-71.2820053100586
4.50005493231118E-08,-70.6011047363281
5.00006103590132E-08,-70.0098571777344
5.50006713949145E-08,-69.5463180541992
6.00007324308158E-08,-69.2364273071289
6.50007934667171E-08,-68.9524536132813
7.00008545026184E-08,-68.6583023071289
7.50009155385197E-08,-68.3643035888672
8.00009765744211E-08,-68.0808029174805
8.50010376103224E-08,-67.8181304931641
9.00010986462237E-08,-67.5866317749023
9.5001159682125E-08,-67.3966369628906
1.00001220718026E-07,-67.2584838867188
1.05001281753928E-07,-67.1825180053711
1.10001342789829E-07,-67.179069519043
1.1500140382573E-07,-67.2584838867188
1.20001464861632E-07,-67.4310913085938
1.25001525897533E-07,-67.7072372436523
1.30001586933434E-07,-68.1520004272461
1.35001647969336E-07,-68.7978057861328
1.40001709005237E-07,-69.6060104370117
1.45001770041138E-07,-70.537971496582
1.50001831077039E-07,-71.5550308227539
1.55001892112941E-07,-72.6185455322266
1.60001953148842E-07,-73.6898651123047
1.65002014184743E-07,-74.7303466796875
1.70002075220645E-07,-75.7013397216797
1.75002136256546E-07,-76.5642013549805
1.80002197292447E-07,-77.2802658081055
1.85002258328349E-07,-77.810905456543
1.9000231936425E-07,-78.1174697875977
1.95002380400151E-07,-78.1727600097656
2.00002441436053E-07,-78.0073928833008
2.05002502471954E-07,-77.653450012207
2.10002563507855E-07,-77.1414413452148
2.15002624543757E-07,-76.5018692016602
2.20002685579658E-07,-75.7652282714844
2.25002746615559E-07,-74.962028503418
2.30002807651461E-07,-74.1227645874023
2.35002868687362E-07,-73.277946472168
2.40002929723263E-07,-72.4580764770508
2.45002990759165E-07,-71.6936569213867
2.50003051795066E-07,-71.0151824951172
2.55003112830967E-07,-70.4531707763672
2.60003173866868E-07,-70.0273132324219
2.6500323490277E-07,-69.6225662231445
2.70003295938671E-07,-69.209831237793
2.75003356974572E-07,-68.801872253418
2.80003418010474E-07,-68.4114532470703
2.85003479046375E-07,-68.0513458251953
2.90003540082276E-07,-67.7343063354492
2.95003601118178E-07,-67.4730987548828
3.00003662154079E-07,-67.2804946899414
3.0500372318998E-07,-67.1692581176758
3.10003784225882E-07,-67.1521453857422
3.15003845261783E-07,-67.2419281005859
3.20003906297684E-07,-67.4513626098633
3.25003967333586E-07,-67.7932281494141
3.30004028369487E-07,-68.3478240966797
3.35004089405388E-07,-69.1551666259766
3.4000415044129E-07,-70.1675643920898
3.45004211477191E-07,-71.3373107910156
3.50004272513092E-07,-72.6167144775391
3.55004333548993E-07,-73.9580688476563
3.60004394584895E-07,-75.3136901855469
3.65004455620796E-07,-76.635871887207
3.70004516656697E-07,-77.8769149780273
3.75004577692599E-07,-78.989128112793
3.800046387285E-07,-79.9248123168945
3.85004699764401E-07,-80.6362686157227
3.90004760800303E-07,-81.075798034668
3.95004821836204E-07,-81.2130584716797
4.00004882872105E-07,-81.0946655273438
4.05004943908007E-07,-80.7576675415039
4.10005004943908E-07,-80.2362976074219
4.15005065979809E-07,-79.5647659301758
4.20005127015711E-07,-78.7773132324219
4.25005188051612E-07,-77.9081573486328
4.30005249087513E-07,-76.9915237426758
4.35005310123415E-07,-76.0616455078125
4.40005371159316E-07,-75.1527404785156
4.45005432195217E-07,-74.2990417480469
4.50005493231119E-07,-73.5347671508789
4.5500555426702E-07,-72.8941497802734
4.60005615302921E-07,-72.398796081543
4.65005676338822E-07,-71.9136047363281
4.70005737374724E-07,-71.4058532714844
4.75005798410625E-07,-70.891975402832
4.80005859446526E-07,-70.3884201049805
4.85005920482428E-07,-69.9116134643555
4.90005981518329E-07,-69.4780120849609
4.9500604255423E-07,-69.1040344238281
5.00006103590132E-07,-68.8061370849609
5.05006164626033E-07,-68.6007461547852
5.10006225661934E-07,-68.5043029785156
5.15006286697836E-07,-68.5332489013672
5.20006347733737E-07,-68.7040252685547
5.25006408769638E-07,-69.0330657958984
5.3000646980554E-07,-69.6147842407227
5.35006530841441E-07,-70.49462890625
5.40006591877342E-07,-71.6155548095703
5.45006652913243E-07,-72.9205093383789
5.50006713949145E-07,-74.3524627685547
5.55006774985046E-07,-75.8543701171875
5.60006836020948E-07,-77.3691940307617
5.65006897056849E-07,-78.8398818969727
5.7000695809275E-07,-80.2093963623047
5.75007019128651E-07,-81.4207000732422
5.80007080164553E-07,-82.416748046875
5.85007141200454E-07,-83.140495300293
5.90007202236355E-07,-83.534912109375
5.95007263272257E-07,-83.5602416992188
6.00007324308158E-07,-83.2627563476563
6.05007385344059E-07,-82.6894912719727
6.10007446379961E-07,-81.8850479125977
6.15007507415862E-07,-80.89404296875
6.20007568451763E-07,-79.7610702514648
6.25007629487665E-07,-78.5307388305664
6.30007690523566E-07,-77.2476577758789
6.35007751559467E-07,-75.9564208984375
6.40007812595369E-07,-74.7016448974609
6.4500787363127E-07,-73.5279235839844
6.50007934667171E-07,-72.479866027832
6.55007995703072E-07,-71.6020812988281
6.60008056738974E-07,-70.9285430908203
6.65008117774875E-07,-70.3517379760742
6.70008178810776E-07,-69.8299179077148
6.75008239846678E-07,-69.3603134155273
6.80008300882579E-07,-68.9401473999023
6.8500836191848E-07,-68.566650390625
6.90008422954382E-07,-68.2370681762695
6.95008483990283E-07,-67.9486236572266
7.00008545026184E-07,-67.6985397338867
7.05008606062086E-07,-67.4840545654297
7.10008667097987E-07,-67.3024063110352
7.15008728133888E-07,-67.1508102416992
7.2000878916979E-07,-67.0265121459961
7.25008850205691E-07,-66.9267349243164
7.30008911241592E-07,-66.8747711181641
7.35008972277494E-07,-66.8894500732422
7.40009033313395E-07,-66.961311340332
7.45009094349296E-07,-67.0808944702148
7.50009155385198E-07,-67.2387466430664
7.55009216421099E-07,-67.4253997802734
7.60009277457E-07,-67.6314010620117
7.65009338492901E-07,-67.8472900390625
7.70009399528803E-07,-68.0635986328125
7.75009460564704E-07,-68.2708740234375
7.80009521600605E-07,-68.4596633911133
7.85009582636507E-07,-68.620491027832
7.90009643672408E-07,-68.7439117431641
7.95009704708309E-07,-68.8298263549805
8.00009765744211E-07,-68.9038238525391
8.05009826780112E-07,-68.9685363769531
8.10009887816013E-07,-69.0244293212891
8.15009948851915E-07,-69.0719757080078
8.20010009887816E-07,-69.1116409301758
8.25010070923717E-07,-69.1438980102539
8.30010131959619E-07,-69.1692199707031
8.3501019299552E-07,-69.1880722045898
8.40010254031421E-07,-69.2009201049805
8.45010315067323E-07,-69.2082443237305
8.50010376103224E-07,-69.2105026245117
8.55010437139125E-07,-69.2081756591797
8.60010498175026E-07,-69.1973571777344
8.65010559210928E-07,-69.1268692016602
8.70010620246829E-07,-68.9956130981445
8.7501068128273E-07,-68.8212280273438
8.80010742318632E-07,-68.6213531494141
8.85010803354533E-07,-68.4136199951172
8.90010864390434E-07,-68.2156677246094
8.95010925426336E-07,-68.0451354980469
9.00010986462237E-07,-67.9196624755859
9.05011047498138E-07,-67.8568878173828
9.1001110853404E-07,-67.8744430541992
9.15011169569941E-07,-67.9899673461914
9.20011230605842E-07,-68.2211074829102
9.25011291641744E-07,-68.5854873657227
9.30011352677645E-07,-69.1476135253906
9.35011413713546E-07,-69.9313583374023
9.40011474749448E-07,-70.8934326171875
9.45011535785349E-07,-71.9905319213867
9.5001159682125E-07,-73.1793746948242
9.55011657857151E-07,-74.4166564941406
9.60011718893053E-07,-75.6590881347656
9.65011779928954E-07,-76.8633651733398
9.70011840964855E-07,-77.986198425293
9.75011902000757E-07,-78.9842987060547
9.80011963036658E-07,-79.8143615722656
9.85012024072559E-07,-80.4330978393555
9.90012085108461E-07,-80.7972106933594
9.95012146144362E-07,-80.8764343261719
1.00001220718026E-06,-80.7055740356445
1.00501226821616E-06,-80.3204345703125
1.01001232925207E-06,-79.7549743652344
1.01501239028797E-06,-79.0431747436523
1.02001245132387E-06,-78.2189865112305
1.02501251235977E-06,-77.3163909912109
1.03001257339567E-06,-76.3693542480469
1.03501263443157E-06,-75.4118423461914
1.04001269546747E-06,-74.4778289794922
1.04501275650338E-06,-73.6012725830078
1.05001281753928E-06,-72.8161392211914
1.05501287857518E-06,-72.1564178466797
1.06001293961108E-06,-71.64794921875
1.06501300064698E-06,-71.2086334228516
1.07001306168288E-06,-70.8066711425781
1.07501312271878E-06,-70.4400405883789
1.08001318375468E-06,-70.1067047119141
1.08501324479059E-06,-69.8046417236328
1.09001330582649E-06,-69.5318145751953
1.09501336686239E-06,-69.2861938476563
1.10001342789829E-06,-69.0657501220703
1.10501348893419E-06,-68.8684616088867
1.11001354997009E-06,-68.6922912597656
1.11501361100599E-06,-68.5352096557617
1.1200136720419E-06,-68.3951873779297
1.1250137330778E-06,-68.2701950073242
1.1300137941137E-06,-68.177490234375
1.1350138551496E-06,-68.1309967041016
1.1400139161855E-06,-68.1236801147461
1.1450139772214E-06,-68.1485366821289
1.1500140382573E-06,-68.1985321044922
1.1550140992932E-06,-68.2666473388672
1.16001416032911E-06,-68.3458633422852
1.16501422136501E-06,-68.4291534423828
1.17001428240091E-06,-68.5095062255859
1.17501434343681E-06,-68.5798873901367
1.18001440447271E-06,-68.6332855224609
1.18501446550861E-06,-68.6626663208008
1.19001452654451E-06,-68.6610260009766
1.19501458758041E-06,-68.6259307861328
1.20001464861632E-06,-68.5699157714844
1.20501470965222E-06,-68.4967956542969
1.21001477068812E-06,-68.4094161987305
1.21501483172402E-06,-68.3106384277344
1.22001489275992E-06,-68.2033081054688
1.22501495379582E-06,-68.0902786254883
1.23001501483172E-06,-67.9743957519531
1.23501507586763E-06,-67.858512878418
1.24001513690353E-06,-67.7454833984375
1.24501519793943E-06,-67.6381530761719
1.25001525897533E-06,-67.5393753051758
1.25501532001123E-06,-67.4520034790039
1.26001538104713E-06,-67.3747406005859
1.26501544208303E-06,-67.2598037719727
1.27001550311893E-06,-67.1040115356445
1.27501556415484E-06,-66.9216003417969
1.28001562519074E-06,-66.7268371582031
1.28501568622664E-06,-66.5339813232422
1.29001574726254E-06,-66.3572769165039
1.29501580829844E-06,-66.2109832763672
1.30001586933434E-06,-66.1093597412109
1.30501593037024E-06,-66.0666580200195
1.31001599140614E-06,-66.0971298217773
1.31501605244205E-06,-66.2150421142578
1.32001611347795E-06,-66.4346466064453
1.32501617451385E-06,-66.7701950073242
1.33001623554975E-06,-67.2828750610352
1.33501629658565E-06,-67.9981155395508
1.34001635762155E-06,-68.8765029907227
1.34501641865745E-06,-69.8786544799805
1.35001647969336E-06,-70.9651565551758
1.35501654072926E-06,-72.0966110229492
1.36001660176516E-06,-73.2336196899414
1.36501666280106E-06,-74.336784362793
1.37001672383696E-06,-75.36669921875
1.37501678487286E-06,-76.2839660644531
1.38001684590876E-06,-77.0491790771484
1.38501690694466E-06,-77.6229553222656
1.39001696798057E-06,-77.9658737182617
1.39501702901647E-06,-78.0513916015625
1.40001709005237E-06,-77.9139099121094
1.40501715108827E-06,-77.5852127075195
1.41001721212417E-06,-77.0951690673828
1.41501727316007E-06,-76.4736251831055
1.42001733419597E-06,-75.7504501342773
1.42501739523188E-06,-74.9555053710938
1.43001745626778E-06,-74.1186370849609
1.43501751730368E-06,-73.2697067260742
1.44001757833958E-06,-72.4385833740234
1.44501763937548E-06,-71.6551208496094
1.45001770041138E-06,-70.9491729736328
1.45501776144728E-06,-70.3506088256836
1.46001782248318E-06,-69.8826293945313
1.46501788351909E-06,-69.478759765625
1.47001794455499E-06,-69.1111221313477
1.47501800559089E-06,-68.7759246826172
1.48001806662679E-06,-68.4693756103516
1.48501812766269E-06,-68.1876831054688
1.49001818869859E-06,-67.9270629882813
1.49501824973449E-06,-67.683708190918
1.5000183107704E-06,-67.4538421630859
1.5050183718063E-06,-67.2336654663086
1.5100184328422E-06,-67.0193939208984
1.5150184938781E-06,-66.8072280883789
1.520018554914E-06,-66.5933837890625
1.5250186159499E-06,-66.3740615844727
1.5300186769858E-06,-66.1683578491211
1.5350187380217E-06,-65.993408203125
1.54001879905761E-06,-65.8424758911133
1.54501886009351E-06,-65.7088470458984
1.55001892112941E-06,-65.5857925415039
1.55501898216531E-06,-65.4665908813477
1.56001904320121E-06,-65.3445129394531
1.56501910423711E-06,-65.2128295898438
1.57001916527301E-06,-65.064826965332
1.57501922630891E-06,-64.8937759399414
1.58001928734482E-06,-64.6929397583008
1.58501934838072E-06,-64.4556121826172
1.59001940941662E-06,-64.1750564575195
1.59501947045252E-06,-63.8467750549316
1.60001953148842E-06,-63.4767303466797
1.60501959252432E-06,-63.0703239440918
1.61001965356022E-06,-62.6326103210449
1.61501971459613E-06,-62.1686592102051
1.62001977563203E-06,-61.6835327148438
1.62501983666793E-06,-61.1822853088379
1.63001989770383E-06,-60.6699867248535
1.63501995873973E-06,-60.1516952514648
1.64002001977563E-06,-59.6324729919434
1.64502008081153E-06,-59.1173820495605
1.65002014184743E-06,-58.6114845275879
1.65502020288334E-06,-58.1198387145996
1.66002026391924E-06,-57.6453666687012
1.66502032495514E-06,-57.1647911071777
1.67002038599104E-06,-56.673225402832
1.67502044702694E-06,-56.1742668151855
1.68002050806284E-06,-55.6715126037598
1.68502056909874E-06,-55.1685485839844
1.69002063013465E-06,-54.6689758300781
1.69502069117055E-06,-54.1763877868652
1.70002075220645E-06,-53.6943740844727
1.70502081324235E-06,-53.2265319824219
1.71002087427825E-06,-52.7764587402344
1.71502093531415E-06,-52.3477439880371
1.72002099635005E-06,-51.9439811706543
1.72502105738595E-06,-51.5687675476074
1.73002111842186E-06,-51.2144889831543
1.73502117945776E-06,-50.8719902038574
1.74002124049366E-06,-50.5425453186035
1.74502130152956E-06,-50.227424621582
1.75002136256546E-06,-49.9279098510742
1.75502142360136E-06,-49.6452713012695
1.76002148463726E-06,-49.3807792663574
1.76502154567316E-06,-49.1357154846191
1.77002160670907E-06,-48.9113502502441
1.77502166774497E-06,-48.7089576721191
1.78002172878087E-06,-48.5298118591309
1.78502178981677E-06,-48.375186920166
1.79002185085267E-06,-48.2463607788086
1.79502191188857E-06,-48.1424140930176
1.80002197292447E-06,-48.0573387145996
1.80502203396038E-06,-47.9915237426758
1.81002209499628E-06,-47.9458923339844
1.81502215603218E-06,-47.9213752746582
1.82002221706808E-06,-47.9188919067383
1.82502227810398E-06,-47.9393730163574
1.83002233913988E-06,-47.9837455749512
1.83502240017578E-06,-48.0529365539551
1.84002246121168E-06,-48.1478691101074
1.84502252224759E-06,-48.2694702148438
1.85002258328349E-06,-48.4186706542969
1.85502264431939E-06,-48.5963935852051
1.86002270535529E-06,-48.8033828735352
1.86502276639119E-06,-49.0379180908203
1.87002282742709E-06,-49.2991371154785
1.87502288846299E-06,-49.5867958068848
1.8800229494989E-06,-49.9006690979004
1.8850230105348E-06,-50.2405166625977
1.8900230715707E-06,-50.6061058044434
1.8950231326066E-06,-50.997200012207
1.9000231936425E-06,-51.4135627746582
1.9050232546784E-06,-51.8549575805664
1.9100233157143E-06,-52.3211517333984
1.9150233767502E-06,-52.8119125366211
1.92002343778611E-06,-53.3269996643066
1.92502349882201E-06,-53.8661766052246
1.93002355985791E-06,-54.4563102722168
1.93502362089381E-06,-55.1158103942871
1.94002368192971E-06,-55.8317680358887
1.94502374296561E-06,-56.5912742614746
1.95002380400151E-06,-57.3814239501953
1.95502386503741E-06,-58.1893043518066
1.96002392607332E-06,-59.0020065307617
1.96502398710922E-06,-59.8066215515137
1.97002404814512E-06,-60.5902442932129
1.97502410918102E-06,-61.3399658203125
1.98002417021692E-06,-62.0428733825684
1.98502423125282E-06,-62.6860618591309
1.99002429228872E-06,-63.2566223144531
1.99502435332463E-06,-63.7524795532227
2.00002441436053E-06,-64.2031936645508
2.00502447539643E-06,-64.6138916015625
2.01002453643233E-06,-64.9872894287109
2.01502459746823E-06,-65.3261108398438
2.02002465850413E-06,-65.6330642700195
2.02502471954003E-06,-65.9108657836914
2.03002478057593E-06,-66.162239074707
2.03502484161184E-06,-66.389892578125
2.04002490264774E-06,-66.596549987793
2.04502496368364E-06,-66.7849197387695
2.05002502471954E-06,-66.9577255249023
2.05502508575544E-06,-67.1176681518555
2.06002514679134E-06,-67.2621459960938
2.06502520782724E-06,-67.3293533325195
2.07002526886315E-06,-67.316032409668
2.07502532989905E-06,-67.2415084838867
2.08002539093495E-06,-67.1251220703125
2.08502545197085E-06,-66.9861831665039
2.09002551300675E-06,-66.8440246582031
2.09502557404265E-06,-66.7179870605469
2.10002563507855E-06,-66.6273803710938
2.10502569611445E-06,-66.5915374755859
2.11002575715036E-06,-66.6297912597656
2.11502581818626E-06,-66.7614669799805
2.12002587922216E-06,-67.0058975219727
2.12502594025806E-06,-67.3823928833008
2.13002600129396E-06,-67.9453659057617
2.13502606232986E-06,-68.7099761962891
2.14002612336576E-06,-69.6367034912109
2.14502618440166E-06,-70.6860122680664
2.15002624543757E-06,-71.8183975219727
2.15502630647347E-06,-72.9943313598633
2.16002636750937E-06,-74.1742858886719
2.16502642854527E-06,-75.3187408447266
2.17002648958117E-06,-76.3881759643555
2.17502655061707E-06,-77.3430709838867
2.18002661165297E-06,-78.1438980102539
2.18502667268888E-06,-78.7511444091797
2.19002673372478E-06,-79.1252746582031
2.19502679476068E-06,-79.2370071411133
2.20002685579658E-06,-79.1135406494141
2.20502691683248E-06,-78.7888641357422
2.21002697786838E-06,-78.2957611083984
2.21502703890428E-06,-77.6670150756836
2.22002709994018E-06,-76.9354019165039
2.22502716097609E-06,-76.1336975097656
2.23002722201199E-06,-75.2946853637695
2.23502728304789E-06,-74.4511489868164
2.24002734408379E-06,-73.6358642578125
2.24502740511969E-06,-72.8816146850586
2.25002746615559E-06,-72.2211685180664
2.25502752719149E-06,-71.6873168945313
2.2600275882274E-06,-71.3040313720703
2.2650276492633E-06,-70.980598449707
2.2700277102992E-06,-70.6861877441406
2.2750277713351E-06,-70.4228820800781
2.280027832371E-06,-70.1927795410156
2.2850278934069E-06,-69.9979858398438
2.2900279544428E-06,-69.8405914306641
2.2950280154787E-06,-69.7226867675781
2.30002807651461E-06,-69.6463775634766
2.30502813755051E-06,-69.6137542724609
2.31002819858641E-06,-69.6269073486328
2.31502825962231E-06,-69.6879425048828
2.32002832065821E-06,-69.7989501953125
2.32502838169411E-06,-69.9620208740234
2.33002844273001E-06,-70.2297744750977
2.33502850376592E-06,-70.6354217529297
2.34002856480182E-06,-71.1519470214844
2.34502862583772E-06,-71.7523422241211
2.35002868687362E-06,-72.4095840454102
2.35502874790952E-06,-73.0966720581055
2.36002880894542E-06,-73.7865982055664
2.36502886998132E-06,-74.4523391723633
2.37002893101722E-06,-75.0668869018555
2.37502899205313E-06,-75.6032333374023
2.38002905308903E-06,-76.0343627929688
2.38502911412493E-06,-76.3332748413086
2.39002917516083E-06,-76.4729385375977
2.39502923619673E-06,-76.4332504272461
2.40002929723263E-06,-76.2325439453125
2.40502935826853E-06,-75.8941192626953
2.41002941930443E-06,-75.4404830932617
2.41502948034034E-06,-74.8941497802734
2.42002954137624E-06,-74.2776031494141
2.42502960241214E-06,-73.6133728027344
2.43002966344804E-06,-72.923942565918
2.43502972448394E-06,-72.2318267822266
2.44002978551984E-06,-71.5595245361328
2.44502984655574E-06,-70.9295425415039
2.45002990759165E-06,-70.3643798828125
2.45502996862755E-06,-69.8865509033203
2.46003002966345E-06,-69.5107421875
2.46503009069935E-06,-69.1538925170898
