Trace
Swept SA
A.19.55,N9020B
508 AB2 B25 B40 B85 DP2 DP4 EP2 FS1 FS2 MPB RTL ,01
Segment,0
Number of Points,81920
Sweep Time,0.0004096
Start Frequency,2400000000
Stop Frequency,2400000000
Average Count,1
Average Type,LogPower(Video)
RBW,3000000
RBW Filter,Gaussian
RBW Filter BW,3dB
VBW,3000000
Sweep Type,Swept
X Axis Scale,Lin
PreAmp State,Off
PreAmp Band,Low
Trigger Source,Ext1
Trigger Level,1.2
Trigger Slope,Positive
Trigger Delay,1E-06
Phase Noise Optimization,Fast
Swept If Gain,Low
FFT If Gain,Autorange
RF Coupling,AC
FFT Width,411900
Ext Ref,10000000
Input,RF
RF Calibrator,Off
Attenuation,6
Ref Level Offset,0
External Gain,0
Trace Type,Clearwrite
Detector,Normal
Trace Math,Off
Trace Math Oper1,Trace5
Trace Math Oper2,Trace6
Trace Math Offset,0
Normalize,Off
Trace Name,Trace1
X Axis Units,s
Y Axis Units,dBm
DATA
0,-46.0829467773438
5.00006103590132E-09,-46.6415824890137
1.00001220718026E-08,-47.2825241088867
1.50001831077039E-08,-47.9842567443848
2.00002441436053E-08,-48.7252731323242
2.50003051795066E-08,-49.4840545654297
3.00003662154079E-08,-50.2390899658203
3.50004272513092E-08,-50.9688682556152
4.00004882872105E-08,-51.6518745422363
4.50005493231118E-08,-52.2665977478027
5.00006103590132E-08,-52.7915267944336
5.50006713949145E-08,-53.2051467895508
6.00007324308158E-08,-53.4883460998535
6.50007934667171E-08,-53.6609382629395
7.00008545026184E-08,-53.7426414489746
7.50009155385197E-08,-53.7461013793945
8.00009765744211E-08,-53.6839561462402
8.50010376103224E-08,-53.5688591003418
9.00010986462237E-08,-53.4134483337402
9.5001159682125E-08,-53.2303695678711
1.00001220718026E-07,-53.0322723388672
1.05001281753928E-07,-52.8317947387695
1.10001342789829E-07,-52.6415824890137
1.1500140382573E-07,-52.4742813110352
1.20001464861632E-07,-52.3425369262695
1.25001525897533E-07,-52.2589912414551
1.30001586933434E-07,-52.1912651062012
1.35001647969336E-07,-52.1033515930176
1.40001709005237E-07,-52.0024604797363
1.45001770041138E-07,-51.8958015441895
1.50001831077039E-07,-51.7905883789063
1.55001892112941E-07,-51.6940231323242
1.60001953148842E-07,-51.6133232116699
1.65002014184743E-07,-51.5556907653809
1.70002075220645E-07,-51.5283432006836
1.75002136256546E-07,-51.5384826660156
1.80002197292447E-07,-51.5933227539063
1.85002258328349E-07,-51.7000732421875
1.9000231936425E-07,-51.8659439086914
1.95002380400151E-07,-52.1045417785645
2.00002441436053E-07,-52.4336853027344
2.05002502471954E-07,-52.8405952453613
2.10002563507855E-07,-53.3104820251465
2.15002624543757E-07,-53.8285636901855
2.20002685579658E-07,-54.3800468444824
2.25002746615559E-07,-54.9501457214355
2.30002807651461E-07,-55.5240707397461
2.35002868687362E-07,-56.0870361328125
2.40002929723263E-07,-56.6242561340332
2.45002990759165E-07,-57.1209411621094
2.50003051795066E-07,-57.5623054504395
2.55003112830967E-07,-57.9335594177246
2.60003173866868E-07,-58.2223091125488
2.6500323490277E-07,-58.4509773254395
2.70003295938671E-07,-58.6332244873047
2.75003356974572E-07,-58.7746391296387
2.80003418010474E-07,-58.8808135986328
2.85003479046375E-07,-58.957332611084
2.90003540082276E-07,-59.0097846984863
2.95003601118178E-07,-59.043758392334
3.00003662154079E-07,-59.0648460388184
3.0500372318998E-07,-59.0786323547363
3.10003784225882E-07,-59.090705871582
3.15003845261783E-07,-59.1066551208496
3.20003906297684E-07,-59.1320724487305
3.25003967333586E-07,-59.1725387573242
3.30004028369487E-07,-59.1879577636719
3.35004089405388E-07,-59.1449966430664
3.4000415044129E-07,-59.059383392334
3.45004211477191E-07,-58.946849822998
3.50004272513092E-07,-58.823127746582
3.55004333548993E-07,-58.7039527893066
3.60004394584895E-07,-58.6050491333008
3.65004455620796E-07,-58.5421562194824
3.70004516656697E-07,-58.5310020446777
3.75004577692599E-07,-58.5873146057129
3.800046387285E-07,-58.7268333435059
3.85004699764401E-07,-58.9652862548828
3.90004760800303E-07,-59.3184013366699
3.95004821836204E-07,-59.8210945129395
4.00004882872105E-07,-60.5266265869141
4.05004943908007E-07,-61.4029579162598
4.10005004943908E-07,-62.4122619628906
4.15005065979809E-07,-63.5167083740234
4.20005127015711E-07,-64.6784744262695
4.25005188051612E-07,-65.8597259521484
4.30005249087513E-07,-67.0226364135742
4.35005310123415E-07,-68.1293869018555
4.40005371159316E-07,-69.1421432495117
4.45005432195217E-07,-70.023078918457
4.50005493231119E-07,-70.7343597412109
4.5500555426702E-07,-71.238166809082
4.60005615302921E-07,-71.4993362426758
4.65005676338822E-07,-71.5343704223633
4.70005737374724E-07,-71.3777008056641
4.75005798410625E-07,-71.0580291748047
4.80005859446526E-07,-70.6040649414063
4.85005920482428E-07,-70.0445098876953
4.90005981518329E-07,-69.4080657958984
4.9500604255423E-07,-68.7234497070313
5.00006103590132E-07,-68.0193634033203
5.05006164626033E-07,-67.3245010375977
5.10006225661934E-07,-66.6675872802734
5.15006286697836E-07,-66.0773086547852
5.20006347733737E-07,-65.5823822021484
5.25006408769638E-07,-65.2115097045898
5.3000646980554E-07,-64.9199523925781
5.35006530841441E-07,-64.6454086303711
5.40006591877342E-07,-64.3902435302734
5.45006652913243E-07,-64.1568450927734
5.50006713949145E-07,-63.9475631713867
5.55006774985046E-07,-63.7647819519043
5.60006836020948E-07,-63.6108703613281
5.65006897056849E-07,-63.4881973266602
5.7000695809275E-07,-63.3991355895996
5.75007019128651E-07,-63.3460540771484
5.80007080164553E-07,-63.3313255310059
5.85007141200454E-07,-63.3573188781738
5.90007202236355E-07,-63.4264068603516
5.95007263272257E-07,-63.5573616027832
6.00007324308158E-07,-63.7954521179199
6.05007385344059E-07,-64.1250991821289
6.10007446379961E-07,-64.5261993408203
6.15007507415862E-07,-64.978645324707
6.20007568451763E-07,-65.4623489379883
6.25007629487665E-07,-65.9571990966797
6.30007690523566E-07,-66.4430999755859
6.35007751559467E-07,-66.8999481201172
6.40007812595369E-07,-67.3076477050781
6.4500787363127E-07,-67.6460876464844
6.50007934667171E-07,-67.8951873779297
6.55007995703072E-07,-68.0348281860352
6.60008056738974E-07,-68.046012878418
6.65008117774875E-07,-67.933837890625
6.70008178810776E-07,-67.7165451049805
6.75008239846678E-07,-67.4106903076172
6.80008300882579E-07,-67.032829284668
6.8500836191848E-07,-66.5995101928711
6.90008422954382E-07,-66.1272811889648
6.95008483990283E-07,-65.632698059082
7.00008545026184E-07,-65.13232421875
7.05008606062086E-07,-64.6427001953125
7.10008667097987E-07,-64.1803894042969
7.15008728133888E-07,-63.7619361877441
7.2000878916979E-07,-63.4038963317871
7.25008850205691E-07,-63.1228218078613
7.30008911241592E-07,-62.903736114502
7.35008972277494E-07,-62.7180252075195
7.40009033313395E-07,-62.5617942810059
7.45009094349296E-07,-62.4311408996582
7.50009155385198E-07,-62.3221702575684
7.55009216421099E-07,-62.2309875488281
7.60009277457E-07,-62.1536903381348
7.65009338492901E-07,-62.0863838195801
7.70009399528803E-07,-62.0251731872559
7.75009460564704E-07,-61.9661598205566
7.80009521600605E-07,-61.9054412841797
7.85009582636507E-07,-61.8391265869141
7.90009643672408E-07,-61.7633171081543
7.95009704708309E-07,-61.6793174743652
8.00009765744211E-07,-61.601375579834
8.05009826780112E-07,-61.5295028686523
8.10009887816013E-07,-61.4624633789063
8.15009948851915E-07,-61.3990173339844
8.20010009887816E-07,-61.3379249572754
8.25010070923717E-07,-61.277946472168
8.30010131959619E-07,-61.217845916748
8.3501019299552E-07,-61.156379699707
8.40010254031421E-07,-61.0923156738281
8.45010315067323E-07,-61.0244064331055
8.50010376103224E-07,-60.9514198303223
8.55010437139125E-07,-60.8721122741699
8.60010498175026E-07,-60.7850952148438
8.65010559210928E-07,-60.6880416870117
8.70010620246829E-07,-60.5820465087891
8.7501068128273E-07,-60.4690589904785
8.80010742318632E-07,-60.3510246276855
8.85010803354533E-07,-60.2299003601074
8.90010864390434E-07,-60.1076316833496
8.95010925426336E-07,-59.9861640930176
9.00010986462237E-07,-59.8674545288086
9.05011047498138E-07,-59.7534484863281
9.1001110853404E-07,-59.6460990905762
9.15011169569941E-07,-59.5473518371582
9.20011230605842E-07,-59.459156036377
9.25011291641744E-07,-59.3834648132324
9.30011352677645E-07,-59.3116264343262
9.35011413713546E-07,-59.2356185913086
9.40011474749448E-07,-59.1583290100098
9.45011535785349E-07,-59.0826530456543
9.5001159682125E-07,-59.0114822387695
9.55011657857151E-07,-58.9477005004883
9.60011718893053E-07,-58.8942070007324
9.65011779928954E-07,-58.8538856506348
9.70011840964855E-07,-58.8296356201172
9.75011902000757E-07,-58.8243370056152
9.80011963036658E-07,-58.840892791748
9.85012024072559E-07,-58.8821830749512
9.90012085108461E-07,-58.9511070251465
9.95012146144362E-07,-59.0586929321289
1.00001220718026E-06,-59.2274589538574
1.00501226821616E-06,-59.4478454589844
1.01001232925207E-06,-59.7079772949219
1.01501239028797E-06,-59.9959754943848
1.02001245132387E-06,-60.299976348877
1.02501251235977E-06,-60.608097076416
1.03001257339567E-06,-60.9084739685059
1.03501263443157E-06,-61.1892242431641
1.04001269546747E-06,-61.4384803771973
1.04501275650338E-06,-61.6443634033203
1.05001281753928E-06,-61.7950057983398
1.05501287857518E-06,-61.878532409668
1.06001293961108E-06,-61.8835372924805
1.06501300064698E-06,-61.8108215332031
1.07001306168288E-06,-61.671142578125
1.07501312271878E-06,-61.4750556945801
1.08001318375468E-06,-61.2331047058105
1.08501324479059E-06,-60.9558448791504
1.09001330582649E-06,-60.6538352966309
1.09501336686239E-06,-60.3376197814941
1.10001342789829E-06,-60.0177574157715
1.10501348893419E-06,-59.7047996520996
1.11001354997009E-06,-59.409294128418
1.11501361100599E-06,-59.1417999267578
1.1200136720419E-06,-58.9128646850586
1.1250137330778E-06,-58.7330474853516
1.1300137941137E-06,-58.5886306762695
1.1350138551496E-06,-58.4585723876953
1.1400139161855E-06,-58.3424034118652
1.1450139772214E-06,-58.2396697998047
1.1500140382573E-06,-58.1499099731445
1.1550140992932E-06,-58.0726547241211
1.16001416032911E-06,-58.0074501037598
1.16501422136501E-06,-57.9538307189941
1.17001428240091E-06,-57.9113388061523
1.17501434343681E-06,-57.879508972168
1.18001440447271E-06,-57.8578834533691
1.18501446550861E-06,-57.8459968566895
1.19001452654451E-06,-57.8433952331543
1.19501458758041E-06,-57.8536033630371
1.20001464861632E-06,-57.887638092041
1.20501470965222E-06,-57.9428062438965
1.21001477068812E-06,-58.0153579711914
1.21501483172402E-06,-58.1015396118164
1.22001489275992E-06,-58.1976051330566
1.22501495379582E-06,-58.2998008728027
1.23001501483172E-06,-58.4043769836426
1.23501507586763E-06,-58.5075874328613
1.24001513690353E-06,-58.6056747436523
1.24501519793943E-06,-58.6948928833008
1.25001525897533E-06,-58.7714920043945
1.25501532001123E-06,-58.8317184448242
1.26001538104713E-06,-58.872444152832
1.26501544208303E-06,-58.8994598388672
1.27001550311893E-06,-58.9162406921387
1.27501556415484E-06,-58.9241600036621
1.28001562519074E-06,-58.9245910644531
1.28501568622664E-06,-58.9189186096191
1.29001574726254E-06,-58.908519744873
1.29501580829844E-06,-58.8947677612305
1.30001586933434E-06,-58.8790435791016
1.30501593037024E-06,-58.8627243041992
1.31001599140614E-06,-58.8471832275391
1.31501605244205E-06,-58.8338050842285
1.32001611347795E-06,-58.8239631652832
1.32501617451385E-06,-58.819034576416
1.33001623554975E-06,-58.8074340820313
1.33501629658565E-06,-58.7797966003418
1.34001635762155E-06,-58.7408218383789
1.34501641865745E-06,-58.6952247619629
1.35001647969336E-06,-58.6477012634277
1.35501654072926E-06,-58.6029663085938
1.36001660176516E-06,-58.5657157897949
1.36501666280106E-06,-58.5406646728516
1.37001672383696E-06,-58.5325088500977
1.37501678487286E-06,-58.5459632873535
1.38001684590876E-06,-58.5857315063477
1.38501690694466E-06,-58.6565132141113
1.39001696798057E-06,-58.7630195617676
1.39501702901647E-06,-58.9180641174316
1.40001709005237E-06,-59.1441116333008
1.40501715108827E-06,-59.4296875
1.41001721212417E-06,-59.7609596252441
1.41501727316007E-06,-60.1240768432617
1.42001733419597E-06,-60.5052070617676
1.42501739523188E-06,-60.8904991149902
1.43001745626778E-06,-61.26611328125
1.43501751730368E-06,-61.6182136535645
1.44001757833958E-06,-61.9329566955566
1.44501763937548E-06,-62.1964950561523
1.45001770041138E-06,-62.3949928283691
1.45501776144728E-06,-62.5146102905273
1.46001782248318E-06,-62.5420532226563
1.46501788351909E-06,-62.478458404541
1.47001794455499E-06,-62.336353302002
1.47501800559089E-06,-62.1279754638672
1.48001806662679E-06,-61.8655662536621
1.48501812766269E-06,-61.5613632202148
1.49001818869859E-06,-61.2276039123535
1.49501824973449E-06,-60.8765258789063
1.5000183107704E-06,-60.5203666687012
1.5050183718063E-06,-60.1713638305664
1.5100184328422E-06,-59.8417587280273
1.5150184938781E-06,-59.5437850952148
1.520018554914E-06,-59.2896842956543
1.5250186159499E-06,-59.0916938781738
1.5300186769858E-06,-58.9442443847656
1.5350187380217E-06,-58.8298988342285
1.54001879905761E-06,-58.7431030273438
1.54501886009351E-06,-58.6782913208008
1.55001892112941E-06,-58.6299057006836
1.55501898216531E-06,-58.5923881530762
1.56001904320121E-06,-58.5601806640625
1.56501910423711E-06,-58.5277214050293
1.57001916527301E-06,-58.4894523620605
1.57501922630891E-06,-58.439811706543
1.58001928734482E-06,-58.3732414245605
1.58501934838072E-06,-58.2841835021973
1.59001940941662E-06,-58.1670722961426
1.59501947045252E-06,-58.0228691101074
1.60001953148842E-06,-57.8693809509277
1.60501959252432E-06,-57.7073516845703
1.61001965356022E-06,-57.5359840393066
1.61501971459613E-06,-57.3544845581055
1.62001977563203E-06,-57.1620559692383
1.62501983666793E-06,-56.9578971862793
1.63001989770383E-06,-56.7412223815918
1.63501995873973E-06,-56.5112266540527
1.64002001977563E-06,-56.2671165466309
1.64502008081153E-06,-56.0080947875977
1.65002014184743E-06,-55.7333679199219
1.65502020288334E-06,-55.442138671875
1.66002026391924E-06,-55.1318473815918
1.66502032495514E-06,-54.7814674377441
1.67002038599104E-06,-54.3914451599121
1.67502044702694E-06,-53.9699287414551
1.68002050806284E-06,-53.5250625610352
1.68502056909874E-06,-53.0650024414063
1.69002063013465E-06,-52.5978965759277
1.69502069117055E-06,-52.1318893432617
1.70002075220645E-06,-51.6751327514648
1.70502081324235E-06,-51.2357749938965
1.71002087427825E-06,-50.8219680786133
1.71502093531415E-06,-50.4418563842773
1.72002099635005E-06,-50.1035957336426
1.72502105738595E-06,-49.8153266906738
1.73002111842186E-06,-49.5826148986816
1.73502117945776E-06,-49.4001083374023
1.74002124049366E-06,-49.2595977783203
1.74502130152956E-06,-49.1528778076172
1.75002136256546E-06,-49.0717315673828
1.75502142360136E-06,-49.0079498291016
1.76002148463726E-06,-48.9533233642578
1.76502154567316E-06,-48.8996429443359
1.77002160670907E-06,-48.838695526123
1.77502166774497E-06,-48.7622718811035
1.78002172878087E-06,-48.6621589660645
1.78502178981677E-06,-48.5301513671875
1.79002185085267E-06,-48.3580360412598
1.79502191188857E-06,-48.1370429992676
1.80002197292447E-06,-47.8654289245605
1.80502203396038E-06,-47.5523872375488
1.81002209499628E-06,-47.2075881958008
1.81502215603218E-06,-46.8407096862793
1.82002221706808E-06,-46.4614105224609
1.82502227810398E-06,-46.0793685913086
1.83002233913988E-06,-45.7042503356934
1.83502240017578E-06,-45.3457260131836
1.84002246121168E-06,-45.0134658813477
1.84502252224759E-06,-44.7171440124512
1.85002258328349E-06,-44.4664192199707
1.85502264431939E-06,-44.2709732055664
1.86002270535529E-06,-44.1397666931152
1.86502276639119E-06,-44.0683212280273
1.87002282742709E-06,-44.0478324890137
1.87502288846299E-06,-44.0710525512695
1.8800229494989E-06,-44.1307334899902
1.8850230105348E-06,-44.2196388244629
1.8900230715707E-06,-44.3305130004883
1.8950231326066E-06,-44.456111907959
1.9000231936425E-06,-44.5891952514648
1.9050232546784E-06,-44.7225112915039
1.9100233157143E-06,-44.8488159179688
1.9150233767502E-06,-44.9608612060547
1.92002343778611E-06,-45.0514068603516
1.92502349882201E-06,-45.1132011413574
1.93002355985791E-06,-45.135009765625
1.93502362089381E-06,-45.1173286437988
1.94002368192971E-06,-45.0705223083496
1.94502374296561E-06,-45.004955291748
1.95002380400151E-06,-44.9309921264648
1.95502386503741E-06,-44.8589935302734
1.96002392607332E-06,-44.7993278503418
1.96502398710922E-06,-44.7623558044434
1.97002404814512E-06,-44.7584419250488
1.97502410918102E-06,-44.7979507446289
1.98002417021692E-06,-44.891242980957
1.98502423125282E-06,-45.0486869812012
1.99002429228872E-06,-45.2806396484375
1.99502435332463E-06,-45.6035575866699
2.00002441436053E-06,-46.0344543457031
2.00502447539643E-06,-46.557445526123
2.01002453643233E-06,-47.1545944213867
2.01502459746823E-06,-47.8079643249512
2.02002465850413E-06,-48.4996185302734
2.02502471954003E-06,-49.2116203308105
2.03002478057593E-06,-49.9260368347168
2.03502484161184E-06,-50.624927520752
2.04002490264774E-06,-51.2903594970703
2.04502496368364E-06,-51.9043922424316
2.05002502471954E-06,-52.4490928649902
2.05502508575544E-06,-52.9065284729004
2.06002514679134E-06,-53.2615127563477
2.06502520782724E-06,-53.5394554138184
2.07002526886315E-06,-53.7569122314453
2.07502532989905E-06,-53.9212913513184
2.08002539093495E-06,-54.0399932861328
2.08502545197085E-06,-54.1204261779785
2.09002551300675E-06,-54.169994354248
2.09502557404265E-06,-54.1961097717285
2.10002563507855E-06,-54.2061729431152
2.10502569611445E-06,-54.2075881958008
2.11002575715036E-06,-54.2077674865723
2.11502581818626E-06,-54.214111328125
2.12002587922216E-06,-54.2340278625488
2.12502594025806E-06,-54.2749214172363
2.13002600129396E-06,-54.3172950744629
2.13502606232986E-06,-54.3397026062012
2.14002612336576E-06,-54.3466262817383
2.14502618440166E-06,-54.3425445556641
2.15002624543757E-06,-54.3319396972656
2.15502630647347E-06,-54.3192939758301
2.16002636750937E-06,-54.3090896606445
2.16502642854527E-06,-54.3058052062988
2.17002648958117E-06,-54.3139266967773
2.17502655061707E-06,-54.3379287719727
2.18002661165297E-06,-54.3823013305664
2.18502667268888E-06,-54.4515190124512
2.19002673372478E-06,-54.5500679016113
2.19502679476068E-06,-54.6834182739258
2.20002685579658E-06,-54.8544311523438
2.20502691683248E-06,-55.0575294494629
2.21002697786838E-06,-55.2867012023926
2.21502703890428E-06,-55.5359420776367
2.22002709994018E-06,-55.7992286682129
2.22502716097609E-06,-56.0705528259277
2.23002722201199E-06,-56.3439064025879
2.23502728304789E-06,-56.6132736206055
2.24002734408379E-06,-56.8726387023926
2.24502740511969E-06,-57.1159934997559
2.25002746615559E-06,-57.3373222351074
2.25502752719149E-06,-57.5306129455566
2.2600275882274E-06,-57.690990447998
2.2650276492633E-06,-57.8294486999512
2.2700277102992E-06,-57.9515647888184
2.2750277713351E-06,-58.058952331543
2.280027832371E-06,-58.1532211303711
2.2850278934069E-06,-58.235969543457
2.2900279544428E-06,-58.3088150024414
2.2950280154787E-06,-58.373363494873
2.30002807651461E-06,-58.4312210083008
2.30502813755051E-06,-58.4839973449707
2.31002819858641E-06,-58.5333023071289
2.31502825962231E-06,-58.580738067627
2.32002832065821E-06,-58.6279220581055
2.32502838169411E-06,-58.676456451416
2.33002844273001E-06,-58.7059020996094
2.33502850376592E-06,-58.7006607055664
2.34002856480182E-06,-58.6695823669434
2.34502862583772E-06,-58.6215209960938
2.35002868687362E-06,-58.5653381347656
2.35502874790952E-06,-58.5098876953125
2.36002880894542E-06,-58.4640274047852
2.36502886998132E-06,-58.4366073608398
2.37002893101722E-06,-58.4364891052246
2.37502899205313E-06,-58.472526550293
2.38002905308903E-06,-58.5535774230957
2.38502911412493E-06,-58.6884956359863
2.39002917516083E-06,-58.8861389160156
2.39502923619673E-06,-59.166431427002
2.40002929723263E-06,-59.5601081848145
2.40502935826853E-06,-60.0489158630371
2.41002941930443E-06,-60.611270904541
2.41502948034034E-06,-61.2255859375
2.42002954137624E-06,-61.8702774047852
2.42502960241214E-06,-62.5237579345703
2.43002966344804E-06,-63.1644439697266
2.43502972448394E-06,-63.7707481384277
2.44002978551984E-06,-64.3210906982422
2.44502984655574E-06,-64.7938766479492
2.45002990759165E-06,-65.1675338745117
2.45502996862755E-06,-65.4204711914063
2.46003002966345E-06,-65.5323333740234
2.46503009069935E-06,-65.5092544555664
2.47003015173525E-06,-65.3708190917969
