Trace
Swept SA
A.19.55,N9020B
508 AB2 B25 B40 B85 DP2 DP4 EP2 FS1 FS2 MPB RTL ,01
Segment,0
Number of Points,81920
Sweep Time,0.000452266667
Start Frequency,2400000000
Stop Frequency,2400000000
Average Count,0
Average Type,LogPower(Video)
RBW,3000000
RBW Filter,Gaussian
RBW Filter BW,3dB
VBW,3000000
Sweep Type,Swept
X Axis Scale,Lin
PreAmp State,Off
PreAmp Band,Low
Trigger Source,Ext1
Trigger Level,1.2
Trigger Slope,Positive
Trigger Delay,1E-06
Phase Noise Optimization,Fast
Swept If Gain,Low
FFT If Gain,Autorange
RF Coupling,AC
FFT Width,411900
Ext Ref,10000000
Input,RF
RF Calibrator,Off
Attenuation,6
Ref Level Offset,0
External Gain,0
Trace Type,Clearwrite
Detector,Normal
Trace Math,Off
Trace Math Oper1,Trace5
Trace Math Oper2,Trace6
Trace Math Offset,0
Normalize,Off
Trace Name,Trace1
X Axis Units,s
Y Axis Units,dBm
DATA
0,-76.2383651733398
5.5209007312101E-09,-76.1724624633789
1.10418014624202E-08,-76.1056976318359
1.65627021936303E-08,-76.0402145385742
2.20836029248404E-08,-75.9781494140625
2.76045036560505E-08,-75.9216461181641
3.31254043872606E-08,-75.8728332519531
3.86463051184707E-08,-75.833854675293
4.41672058496808E-08,-75.8068389892578
4.96881065808909E-08,-75.7939376831055
5.5209007312101E-08,-75.7972717285156
6.07299080433111E-08,-75.8135375976563
6.62508087745212E-08,-75.8350219726563
7.17717095057313E-08,-75.863151550293
7.72926102369414E-08,-75.8995208740234
8.28135109681515E-08,-75.9457092285156
8.83344116993616E-08,-76.003303527832
9.38553124305717E-08,-76.0738906860352
9.93762131617818E-08,-76.159065246582
1.04897113892992E-07,-76.2604141235352
1.10418014624202E-07,-76.379524230957
1.15938915355412E-07,-76.5179748535156
1.21459816086622E-07,-76.6773681640625
1.26980716817832E-07,-76.8535919189453
1.32501617549042E-07,-77.0362777709961
1.38022518280252E-07,-77.228157043457
1.43543419011463E-07,-77.4324798583984
1.49064319742673E-07,-77.652473449707
1.54585220473883E-07,-77.8913879394531
1.60106121205093E-07,-78.1524505615234
1.65627021936303E-07,-78.4389114379883
1.71147922667513E-07,-78.7540054321289
1.76668823398723E-07,-79.1009750366211
1.82189724129933E-07,-79.4830551147461
1.87710624861143E-07,-79.9034881591797
1.93231525592353E-07,-80.3884582519531
1.98752426323564E-07,-80.9929122924805
2.04273327054774E-07,-81.6931457519531
2.09794227785984E-07,-82.460693359375
2.15315128517194E-07,-83.2670745849609
2.20836029248404E-07,-84.0838317871094
2.26356929979614E-07,-84.8824920654297
2.31877830710824E-07,-85.6345748901367
2.37398731442034E-07,-86.3116226196289
2.42919632173244E-07,-86.8851623535156
2.48440532904454E-07,-87.3267211914063
2.53961433635664E-07,-87.6078262329102
2.59482334366875E-07,-87.707145690918
2.65003235098085E-07,-87.6453628540039
2.70524135829295E-07,-87.4458236694336
2.76045036560505E-07,-87.1304702758789
2.81565937291715E-07,-86.7212219238281
2.87086838022925E-07,-86.2400131225586
2.92607738754135E-07,-85.7087631225586
2.98128639485345E-07,-85.1493988037109
3.03649540216555E-07,-84.583854675293
3.09170440947765E-07,-84.0340576171875
3.14691341678976E-07,-83.5219268798828
3.20212242410186E-07,-83.0694046020508
3.25733143141396E-07,-82.6818313598633
3.31254043872606E-07,-82.2915267944336
3.36774944603816E-07,-81.8925094604492
3.42295845335026E-07,-81.4895935058594
3.47816746066236E-07,-81.0875778198242
3.53337646797446E-07,-80.6912689208984
3.58858547528656E-07,-80.3054580688477
3.64379448259866E-07,-79.9349517822266
3.69900348991077E-07,-79.5845565795898
3.75421249722287E-07,-79.2590713500977
3.80942150453497E-07,-78.9633026123047
3.86463051184707E-07,-78.7020416259766
3.91983951915917E-07,-78.4773483276367
3.97504852647127E-07,-78.274169921875
4.03025753378337E-07,-78.0904312133789
4.08546654109547E-07,-77.9273376464844
4.14067554840757E-07,-77.7861022949219
4.19588455571967E-07,-77.6679306030273
4.25109356303178E-07,-77.5740280151367
4.30630257034388E-07,-77.505615234375
4.36151157765598E-07,-77.4638824462891
4.41672058496808E-07,-77.4500503540039
4.47192959228018E-07,-77.4653244018555
4.52713859959228E-07,-77.5109100341797
4.58234760690438E-07,-77.5901107788086
4.63755661421648E-07,-77.7207794189453
4.69276562152858E-07,-77.9002227783203
4.74797462884068E-07,-78.1202926635742
4.80318363615278E-07,-78.3728713989258
4.85839264346489E-07,-78.6498107910156
4.91360165077699E-07,-78.943000793457
4.96881065808909E-07,-79.2442932128906
5.02401966540119E-07,-79.5455627441406
5.07922867271329E-07,-79.8386764526367
5.13443768002539E-07,-80.1155014038086
5.18964668733749E-07,-80.3679122924805
5.24485569464959E-07,-80.5914459228516
5.30006470196169E-07,-80.8288269042969
5.3552737092738E-07,-81.0869903564453
5.4104827165859E-07,-81.3562850952148
5.465691723898E-07,-81.6270370483398
5.5209007312101E-07,-81.8895950317383
5.5761097385222E-07,-82.1342926025391
5.6313187458343E-07,-82.3514709472656
5.6865277531464E-07,-82.5314559936523
5.7417367604585E-07,-82.6646041870117
5.7969457677706E-07,-82.7412414550781
5.8521547750827E-07,-82.7517166137695
5.90736378239481E-07,-82.6858978271484
5.96257278970691E-07,-82.5297927856445
6.01778179701901E-07,-82.2907409667969
6.07299080433111E-07,-81.9826736450195
6.12819981164321E-07,-81.619514465332
6.18340881895531E-07,-81.2151870727539
6.23861782626741E-07,-80.7836227416992
6.29382683357951E-07,-80.338737487793
6.34903584089161E-07,-79.8944625854492
6.40424484820371E-07,-79.4647216796875
6.45945385551581E-07,-79.0634384155273
6.51466286282792E-07,-78.7045440673828
6.56987187014002E-07,-78.4010696411133
6.62508087745212E-07,-78.1246337890625
6.68028988476422E-07,-77.8567047119141
6.73549889207632E-07,-77.5984268188477
6.79070789938842E-07,-77.3509674072266
6.84591690670052E-07,-77.1155014038086
6.90112591401262E-07,-76.8931884765625
6.95633492132472E-07,-76.685188293457
7.01154392863682E-07,-76.4926681518555
7.06675293594893E-07,-76.3168029785156
7.12196194326103E-07,-76.1587371826172
7.17717095057313E-07,-76.0196533203125
7.23237995788523E-07,-75.9007415771484
7.28758896519733E-07,-75.8069000244141
7.34279797250943E-07,-75.7387924194336
7.39800697982153E-07,-75.6932678222656
7.45321598713363E-07,-75.6671752929688
7.50842499444573E-07,-75.6573791503906
7.56363400175783E-07,-75.6607208251953
7.61884300906994E-07,-75.6740570068359
7.67405201638204E-07,-75.6942367553711
7.72926102369414E-07,-75.7181091308594
7.78447003100624E-07,-75.7425384521484
7.83967903831834E-07,-75.7643661499023
7.89488804563044E-07,-75.7804489135742
7.95009705294254E-07,-75.7960510253906
8.00530606025464E-07,-75.8175201416016
8.06051506756674E-07,-75.8441848754883
8.11572407487884E-07,-75.875358581543
8.17093308219094E-07,-75.9103698730469
8.22614208950305E-07,-75.9485473632813
8.28135109681515E-07,-75.9892196655273
8.33656010412725E-07,-76.0317001342773
8.39176911143935E-07,-76.075325012207
8.44697811875145E-07,-76.1194152832031
8.50218712606355E-07,-76.1632919311523
8.55739613337565E-07,-76.2062911987305
8.61260514068775E-07,-76.2443389892578
8.66781414799985E-07,-76.2747802734375
8.72302315531195E-07,-76.300422668457
8.77823216262406E-07,-76.3241195678711
8.83344116993616E-07,-76.3486938476563
8.88865017724826E-07,-76.3770065307617
8.94385918456036E-07,-76.4118728637695
8.99906819187246E-07,-76.4561462402344
9.05427719918456E-07,-76.5126647949219
9.10948620649666E-07,-76.5842590332031
9.16469521380876E-07,-76.6737670898438
9.21990422112086E-07,-76.7840423583984
9.27511322843296E-07,-76.9196548461914
9.33032223574507E-07,-77.0820388793945
9.38553124305717E-07,-77.266716003418
9.44074025036927E-07,-77.4691772460938
9.49594925768137E-07,-77.6848983764648
9.55115826499347E-07,-77.9093475341797
9.60636727230557E-07,-78.1380081176758
9.66157627961767E-07,-78.3663558959961
9.71678528692977E-07,-78.5898666381836
9.77199429424187E-07,-78.8040161132813
9.82720330155397E-07,-79.0042953491211
9.88241230886608E-07,-79.186164855957
9.93762131617818E-07,-79.353630065918
9.99283032349028E-07,-79.5215072631836
1.00480393308024E-06,-79.6883239746094
1.01032483381145E-06,-79.8520126342773
1.01584573454266E-06,-80.0105209350586
1.02136663527387E-06,-80.1617889404297
1.02688753600508E-06,-80.3037643432617
1.03240843673629E-06,-80.4343872070313
1.0379293374675E-06,-80.5516052246094
1.04345023819871E-06,-80.6533660888672
1.04897113892992E-06,-80.7376022338867
1.05449203966113E-06,-80.8022689819336
1.06001294039234E-06,-80.8432388305664
1.06553384112355E-06,-80.8559951782227
1.07105474185476E-06,-80.8445739746094
1.07657564258597E-06,-80.8134078979492
1.08209654331718E-06,-80.7669372558594
1.08761744404839E-06,-80.709602355957
1.0931383447796E-06,-80.6458358764648
1.09865924551081E-06,-80.5800933837891
1.10418014624202E-06,-80.5167922973633
1.10970104697323E-06,-80.4603881835938
1.11522194770444E-06,-80.4153060913086
1.12074284843565E-06,-80.3860015869141
1.12626374916686E-06,-80.3726425170898
1.13178464989807E-06,-80.3628005981445
1.13730555062928E-06,-80.355712890625
1.14282645136049E-06,-80.3518829345703
1.1483473520917E-06,-80.3517990112305
1.15386825282291E-06,-80.3559494018555
1.15938915355412E-06,-80.3648147583008
1.16491005428533E-06,-80.37890625
1.17043095501654E-06,-80.3986968994141
1.17595185574775E-06,-80.424690246582
1.18147275647896E-06,-80.4573669433594
1.18699365721017E-06,-80.4972229003906
1.19251455794138E-06,-80.5389709472656
1.19803545867259E-06,-80.5596160888672
1.2035563594038E-06,-80.5643615722656
1.20907726013501E-06,-80.5620803833008
1.21459816086622E-06,-80.561637878418
1.22011906159743E-06,-80.571891784668
1.22563996232864E-06,-80.6017150878906
1.23116086305985E-06,-80.6599731445313
1.23668176379106E-06,-80.7555389404297
1.24220266452227E-06,-80.8972702026367
1.24772356525348E-06,-81.0940399169922
1.25324446598469E-06,-81.3547058105469
1.2587653667159E-06,-81.6952285766602
1.26428626744711E-06,-82.1561279296875
1.26980716817832E-06,-82.7216415405273
1.27532806890953E-06,-83.3669052124023
1.28084896964074E-06,-84.0670623779297
1.28636987037195E-06,-84.797233581543
1.29189077110316E-06,-85.5325698852539
1.29741167183437E-06,-86.2482070922852
1.30293257256558E-06,-86.9192810058594
1.30845347329679E-06,-87.5209274291992
1.313974374028E-06,-88.0282897949219
1.31949527475921E-06,-88.4164962768555
1.32501617549042E-06,-88.6658706665039
1.33053707622163E-06,-88.8083267211914
1.33605797695284E-06,-88.8632354736328
1.34157887768405E-06,-88.8417434692383
1.34709977841526E-06,-88.7549667358398
1.35262067914647E-06,-88.6140594482422
1.35814157987768E-06,-88.4301452636719
1.36366248060889E-06,-88.2143630981445
1.3691833813401E-06,-87.9778442382813
1.37470428207131E-06,-87.7317199707031
1.38022518280252E-06,-87.4871292114258
1.38574608353373E-06,-87.2552032470703
1.39126698426494E-06,-87.0429534912109
1.39678788499615E-06,-86.8082733154297
1.40230878572736E-06,-86.5424194335938
1.40782968645858E-06,-86.2519149780273
1.41335058718979E-06,-85.9432678222656
1.418871487921E-06,-85.6230163574219
1.42439238865221E-06,-85.2976684570313
1.42991328938342E-06,-84.973747253418
1.43543419011463E-06,-84.6577758789063
1.44095509084584E-06,-84.3562850952148
1.44647599157705E-06,-84.0757751464844
1.45199689230826E-06,-83.8227920532227
1.45751779303947E-06,-83.6036682128906
1.46303869377068E-06,-83.4183883666992
1.46855959450189E-06,-83.2611465454102
1.4740804952331E-06,-83.1263427734375
1.47960139596431E-06,-83.0083847045898
1.48512229669552E-06,-82.9016799926758
1.49064319742673E-06,-82.8006210327148
1.49616409815794E-06,-82.6996154785156
1.50168499888915E-06,-82.5930633544922
1.50720589962036E-06,-82.4753723144531
1.51272680035157E-06,-82.3409423828125
1.51824770108278E-06,-82.1841812133789
1.52376860181399E-06,-81.9994506835938
1.5292895025452E-06,-81.7826538085938
1.53481040327641E-06,-81.5381164550781
1.54033130400762E-06,-81.2721176147461
1.54585220473883E-06,-80.9909210205078
1.55137310547004E-06,-80.7008056640625
1.55689400620125E-06,-80.4080505371094
1.56241490693246E-06,-80.1189193725586
1.56793580766367E-06,-79.8396987915039
1.57345670839488E-06,-79.57666015625
1.57897760912609E-06,-79.3360748291016
1.5844985098573E-06,-79.1242141723633
1.59001941058851E-06,-78.9470977783203
1.59554031131972E-06,-78.7858505249023
1.60106121205093E-06,-78.6285247802734
1.60658211278214E-06,-78.4790496826172
1.61210301351335E-06,-78.3413162231445
1.61762391424456E-06,-78.21923828125
1.62314481497577E-06,-78.1167297363281
1.62866571570698E-06,-78.0376892089844
1.63418661643819E-06,-77.9860305786133
1.6397075171694E-06,-77.9656600952148
1.64522841790061E-06,-77.9804840087891
1.65074931863182E-06,-78.0344085693359
1.65627021936303E-06,-78.1313400268555
1.66179112009424E-06,-78.2657928466797
1.66731202082545E-06,-78.4309463500977
1.67283292155666E-06,-78.6269226074219
1.67835382228787E-06,-78.8538284301758
1.68387472301908E-06,-79.1117706298828
1.68939562375029E-06,-79.40087890625
1.6949165244815E-06,-79.7212524414063
1.70043742521271E-06,-80.0730056762695
1.70595832594392E-06,-80.4562606811523
1.71147922667513E-06,-80.8711166381836
1.71700012740634E-06,-81.3176879882813
1.72252102813755E-06,-81.7960968017578
1.72804192886876E-06,-82.3524322509766
1.73356282959997E-06,-83.0226974487305
1.73908373033118E-06,-83.780029296875
1.74460463106239E-06,-84.5974960327148
1.7501255317936E-06,-85.4481506347656
1.75564643252481E-06,-86.3050537109375
1.76116733325602E-06,-87.1412734985352
1.76668823398723E-06,-87.9298553466797
1.77220913471844E-06,-88.6438674926758
1.77773003544965E-06,-89.2563705444336
1.78325093618086E-06,-89.7404251098633
1.78877183691207E-06,-90.0690841674805
1.79429273764328E-06,-90.2230682373047
1.79981363837449E-06,-90.2185134887695
1.8053345391057E-06,-90.081428527832
1.81085543983691E-06,-89.8378067016602
1.81637634056812E-06,-89.5136489868164
1.82189724129933E-06,-89.1349487304688
1.82741814203054E-06,-88.7276916503906
1.83293904276175E-06,-88.3178863525391
1.83845994349296E-06,-87.9315185546875
1.84398084422417E-06,-87.5945816040039
1.84950174495538E-06,-87.3330764770508
1.85502264568659E-06,-87.1729965209961
1.8605435464178E-06,-87.1209945678711
1.86606444714901E-06,-87.1427536010742
1.87158534788022E-06,-87.223388671875
1.87710624861143E-06,-87.3488159179688
1.88262714934264E-06,-87.5049438476563
1.88814805007385E-06,-87.6776809692383
1.89366895080506E-06,-87.8529586791992
1.89918985153627E-06,-88.0166778564453
1.90471075226748E-06,-88.1547546386719
1.91023165299869E-06,-88.2531127929688
1.9157525537299E-06,-88.2976608276367
1.92127345446111E-06,-88.2743072509766
1.92679435519232E-06,-88.1805801391602
1.93231525592353E-06,-88.0415191650391
1.93783615665474E-06,-87.8629837036133
1.94335705738595E-06,-87.649543762207
1.94887795811716E-06,-87.4057693481445
1.95439885884837E-06,-87.1362457275391
1.95991975957958E-06,-86.8455429077148
1.9654406603108E-06,-86.5382308959961
1.970961561042E-06,-86.2188873291016
1.97648246177322E-06,-85.8920822143555
1.98200336250443E-06,-85.5623931884766
1.98752426323564E-06,-85.2343978881836
1.99304516396685E-06,-84.9014205932617
1.99856606469806E-06,-84.5324859619141
2.00408696542927E-06,-84.1329879760742
2.00960786616048E-06,-83.7113647460938
2.01512876689169E-06,-83.2760696411133
2.0206496676229E-06,-82.8355484008789
2.02617056835411E-06,-82.3982391357422
2.03169146908532E-06,-81.9725875854492
2.03721236981653E-06,-81.5670394897461
2.04273327054774E-06,-81.1900405883789
2.04825417127895E-06,-80.8500366210938
2.05377507201016E-06,-80.5554656982422
2.05929597274137E-06,-80.3088989257813
2.06481687347258E-06,-80.0896148681641
2.07033777420379E-06,-79.8945541381836
2.075858674935E-06,-79.7233810424805
2.08137957566621E-06,-79.5757522583008
2.08690047639742E-06,-79.4513320922852
2.09242137712863E-06,-79.3497772216797
2.09794227785984E-06,-79.2707443237305
2.10346317859105E-06,-79.2138977050781
2.10898407932226E-06,-79.1788940429688
2.11450498005347E-06,-79.1653900146484
2.12002588078468E-06,-79.1730499267578
2.12554678151589E-06,-79.2045440673828
2.1310676822471E-06,-79.2749404907227
2.13658858297831E-06,-79.3815841674805
2.14210948370952E-06,-79.5188217163086
2.14763038444073E-06,-79.6810073852539
2.15315128517194E-06,-79.8624725341797
2.15867218590315E-06,-80.0575790405273
2.16419308663436E-06,-80.2606582641602
2.16971398736557E-06,-80.4660568237305
2.17523488809678E-06,-80.6681289672852
2.18075578882799E-06,-80.8612060546875
2.1862766895592E-06,-81.0396499633789
2.19179759029041E-06,-81.2010803222656
2.19731849102162E-06,-81.3667678833008
2.20283939175283E-06,-81.5392456054688
2.20836029248404E-06,-81.7156066894531
2.21388119321525E-06,-81.892951965332
2.21940209394646E-06,-82.0683746337891
2.22492299467767E-06,-82.2389678955078
2.23044389540888E-06,-82.4018325805664
2.23596479614009E-06,-82.5540542602539
2.2414856968713E-06,-82.6927337646484
2.24700659760251E-06,-82.8149642944336
2.25252749833372E-06,-82.9178466796875
2.25804839906493E-06,-82.9988708496094
2.26356929979614E-06,-83.061149597168
2.26909020052735E-06,-83.1071395874023
2.27461110125856E-06,-83.1382827758789
2.28013200198977E-06,-83.1560363769531
2.28565290272098E-06,-83.1618423461914
2.29117380345219E-06,-83.1571502685547
2.2966947041834E-06,-83.1434097290039
2.30221560491461E-06,-83.1220626831055
2.30773650564582E-06,-83.0945510864258
2.31325740637703E-06,-83.0623397827148
2.31877830710824E-06,-83.0268630981445
2.32429920783945E-06,-82.9888229370117
2.32982010857066E-06,-82.936897277832
2.33534100930187E-06,-82.8693771362305
2.34086191003308E-06,-82.7895278930664
2.34638281076429E-06,-82.7006454467773
2.3519037114955E-06,-82.6060104370117
2.35742461222671E-06,-82.5088958740234
2.36294551295792E-06,-82.4125900268555
2.36846641368913E-06,-82.3203735351563
2.37398731442034E-06,-82.2355270385742
2.37950821515155E-06,-82.1613311767578
2.38502911588276E-06,-82.10107421875
2.39055001661397E-06,-82.0574569702148
2.39607091734518E-06,-82.0159759521484
2.40159181807639E-06,-81.9715881347656
2.4071127188076E-06,-81.9276580810547
2.41263361953881E-06,-81.887580871582
2.41815452027002E-06,-81.8547210693359
2.42367542100123E-06,-81.8324661254883
2.42919632173244E-06,-81.8241958618164
2.43471722246365E-06,-81.8332824707031
2.44023812319486E-06,-81.8631057739258
2.44575902392607E-06,-81.9170379638672
2.45127992465728E-06,-81.9984741210938
2.45680082538849E-06,-82.1106109619141
2.4623217261197E-06,-82.2445220947266
2.46784262685091E-06,-82.3945846557617
2.47336352758212E-06,-82.5621948242188
2.47888442831333E-06,-82.7487640380859
2.48440532904454E-06,-82.9556884765625
2.48992622977575E-06,-83.1843643188477
2.49544713050696E-06,-83.4362106323242
2.50096803123817E-06,-83.7126083374023
2.50648893196938E-06,-84.0149841308594
2.51200983270059E-06,-84.3447189331055
2.5175307334318E-06,-84.7032241821289
2.52305163416301E-06,-85.0920257568359
2.52857253489422E-06,-85.5496292114258
2.53409343562543E-06,-86.0922927856445
2.53961433635665E-06,-86.7000732421875
2.54513523708785E-06,-87.3530197143555
2.55065613781907E-06,-88.0311965942383
2.55617703855028E-06,-88.7146453857422
2.56169793928149E-06,-89.383430480957
2.5672188400127E-06,-90.0175933837891
2.57273974074391E-06,-90.5972061157227
2.57826064147512E-06,-91.1023101806641
2.58378154220633E-06,-91.5129699707031
2.58930244293754E-06,-91.8092269897461
2.59482334366875E-06,-91.9939041137695
2.60034424439996E-06,-92.0916213989258
2.60586514513117E-06,-92.1130523681641
2.61138604586238E-06,-92.0689010620117
2.61690694659359E-06,-91.969841003418
2.6224278473248E-06,-91.8265686035156
2.62794874805601E-06,-91.6497650146484
2.63346964878722E-06,-91.4501113891602
2.63899054951843E-06,-91.2382965087891
2.64451145024964E-06,-91.0250091552734
2.65003235098085E-06,-90.820930480957
2.65555325171206E-06,-90.6367492675781
2.66107415244327E-06,-90.462646484375
2.66659505317448E-06,-90.2741851806641
2.67211595390569E-06,-90.072151184082
2.6776368546369E-06,-89.8575744628906
2.68315775536811E-06,-89.6314468383789
2.68867865609932E-06,-89.3947982788086
2.69419955683053E-06,-89.1486206054688
2.69972045756174E-06,-88.8939361572266
2.70524135829295E-06,-88.6317520141602
2.71076225902416E-06,-88.3630752563477
2.71628315975537E-06,-88.0889205932617
2.72180406048658E-06,-87.810302734375
