Trace
Swept SA
A.19.55,N9020B
508 AB2 B25 B40 B85 DP2 DP4 EP2 FS1 FS2 MPB RTL ,01
Segment,0
Number of Points,81920
Sweep Time,0.0004096
Start Frequency,2400000000
Stop Frequency,2400000000
Average Count,0
Average Type,LogPower(Video)
RBW,3000000
RBW Filter,Gaussian
RBW Filter BW,3dB
VBW,3000000
Sweep Type,Swept
X Axis Scale,Lin
PreAmp State,Off
PreAmp Band,Low
Trigger Source,Ext1
Trigger Level,1.2
Trigger Slope,Positive
Trigger Delay,1E-06
Phase Noise Optimization,Fast
Swept If Gain,Low
FFT If Gain,Autorange
RF Coupling,AC
FFT Width,411900
Ext Ref,10000000
Input,RF
RF Calibrator,Off
Attenuation,6
Ref Level Offset,0
External Gain,0
Trace Type,Clearwrite
Detector,Normal
Trace Math,Off
Trace Math Oper1,Trace5
Trace Math Oper2,Trace6
Trace Math Offset,0
Normalize,Off
Trace Name,Trace1
X Axis Units,s
Y Axis Units,dBm
DATA
0,-47.6697654724121
5.00006103590132E-09,-47.7415390014648
1.00001220718026E-08,-47.8096733093262
1.50001831077039E-08,-47.8742980957031
2.00002441436053E-08,-47.9355316162109
2.50003051795066E-08,-47.9935073852539
3.00003662154079E-08,-48.0483512878418
3.50004272513092E-08,-48.1001853942871
4.00004882872105E-08,-48.1491394042969
4.50005493231118E-08,-48.1953430175781
5.00006103590132E-08,-48.2389144897461
5.50006713949145E-08,-48.2799873352051
6.00007324308158E-08,-48.3185539245605
6.50007934667171E-08,-48.3531341552734
7.00008545026184E-08,-48.3835945129395
7.50009155385197E-08,-48.410343170166
8.00009765744211E-08,-48.4337882995605
8.50010376103224E-08,-48.4543342590332
9.00010986462237E-08,-48.4723892211914
9.5001159682125E-08,-48.4883613586426
1.00001220718026E-07,-48.5026588439941
1.05001281753928E-07,-48.5156860351563
1.10001342789829E-07,-48.5278549194336
1.1500140382573E-07,-48.5395698547363
1.20001464861632E-07,-48.5512390136719
1.25001525897533E-07,-48.5632705688477
1.30001586933434E-07,-48.5609664916992
1.35001647969336E-07,-48.5339508056641
1.40001709005237E-07,-48.4890899658203
1.45001770041138E-07,-48.4332618713379
1.50001831077039E-07,-48.3733367919922
1.55001892112941E-07,-48.3161888122559
1.60001953148842E-07,-48.2686920166016
1.65002014184743E-07,-48.2377166748047
1.70002075220645E-07,-48.2301330566406
1.75002136256546E-07,-48.2528228759766
1.80002197292447E-07,-48.3126487731934
1.85002258328349E-07,-48.4164924621582
1.9000231936425E-07,-48.5712203979492
1.95002380400151E-07,-48.7886543273926
2.00002441436053E-07,-49.0826072692871
2.05002502471954E-07,-49.4418106079102
2.10002563507855E-07,-49.8533973693848
2.15002624543757E-07,-50.3044967651367
2.20002685579658E-07,-50.7822418212891
2.25002746615559E-07,-51.2737617492676
2.30002807651461E-07,-51.7661895751953
2.35002868687362E-07,-52.246654510498
2.40002929723263E-07,-52.7022895812988
2.45002990759165E-07,-53.1202278137207
2.50003051795066E-07,-53.4875984191895
2.55003112830967E-07,-53.7915306091309
2.60003173866868E-07,-54.0210037231445
2.6500323490277E-07,-54.1926651000977
2.70003295938671E-07,-54.3183708190918
2.75003356974572E-07,-54.4039916992188
2.80003418010474E-07,-54.4554023742676
2.85003479046375E-07,-54.4784660339355
2.90003540082276E-07,-54.479061126709
2.95003601118178E-07,-54.4630584716797
3.00003662154079E-07,-54.4363250732422
3.0500372318998E-07,-54.4047355651855
3.10003784225882E-07,-54.3741569519043
3.15003845261783E-07,-54.3504638671875
3.20003906297684E-07,-54.339527130127
3.25003967333586E-07,-54.3472175598145
3.30004028369487E-07,-54.3564262390137
3.35004089405388E-07,-54.3490257263184
3.4000415044129E-07,-54.3293762207031
3.45004211477191E-07,-54.3018379211426
3.50004272513092E-07,-54.2707672119141
3.55004333548993E-07,-54.2405204772949
3.60004394584895E-07,-54.2154579162598
3.65004455620796E-07,-54.1999359130859
3.70004516656697E-07,-54.198314666748
3.75004577692599E-07,-54.2149467468262
3.800046387285E-07,-54.2541961669922
3.85004699764401E-07,-54.3204154968262
3.90004760800303E-07,-54.4179611206055
3.95004821836204E-07,-54.5536460876465
4.00004882872105E-07,-54.7343254089355
4.05004943908007E-07,-54.9533996582031
4.10005004943908E-07,-55.2034492492676
4.15005065979809E-07,-55.4770469665527
4.20005127015711E-07,-55.7667655944824
4.25005188051612E-07,-56.0651779174805
4.30005249087513E-07,-56.3648643493652
4.35005310123415E-07,-56.6583976745605
4.40005371159316E-07,-56.9383506774902
4.45005432195217E-07,-57.1972961425781
4.50005493231119E-07,-57.4278144836426
4.5500555426702E-07,-57.6224746704102
4.60005615302921E-07,-57.775032043457
4.65005676338822E-07,-57.8964347839355
4.70005737374724E-07,-57.9935417175293
4.75005798410625E-07,-58.069263458252
4.80005859446526E-07,-58.126522064209
4.85005920482428E-07,-58.1682243347168
4.90005981518329E-07,-58.1972885131836
4.9500604255423E-07,-58.216625213623
5.00006103590132E-07,-58.2291526794434
5.05006164626033E-07,-58.2377853393555
5.10006225661934E-07,-58.245433807373
5.15006286697836E-07,-58.255012512207
5.20006347733737E-07,-58.2694396972656
5.25006408769638E-07,-58.2916221618652
5.3000646980554E-07,-58.3136291503906
5.35006530841441E-07,-58.326831817627
5.40006591877342E-07,-58.3331298828125
5.45006652913243E-07,-58.3344116210938
5.50006713949145E-07,-58.332576751709
5.55006774985046E-07,-58.3295135498047
5.60006836020948E-07,-58.3271217346191
5.65006897056849E-07,-58.3272895812988
5.7000695809275E-07,-58.3319129943848
5.75007019128651E-07,-58.3428840637207
5.80007080164553E-07,-58.3621025085449
5.85007141200454E-07,-58.3914566040039
5.90007202236355E-07,-58.4328384399414
5.95007263272257E-07,-58.4902725219727
6.00007324308158E-07,-58.569652557373
6.05007385344059E-07,-58.6672706604004
6.10007446379961E-07,-58.7787704467773
6.15007507415862E-07,-58.8997993469238
6.20007568451763E-07,-59.0260009765625
6.25007629487665E-07,-59.1530151367188
6.30007690523566E-07,-59.2764892578125
6.35007751559467E-07,-59.3920669555664
6.40007812595369E-07,-59.4953918457031
6.4500787363127E-07,-59.5821075439453
6.50007934667171E-07,-59.6478576660156
6.55007995703072E-07,-59.688289642334
6.60008056738974E-07,-59.6991920471191
6.65008117774875E-07,-59.6805610656738
6.70008178810776E-07,-59.6363372802734
6.75008239846678E-07,-59.570499420166
6.80008300882579E-07,-59.4870223999023
6.8500836191848E-07,-59.3898811340332
6.90008422954382E-07,-59.2830581665039
6.95008483990283E-07,-59.170524597168
7.00008545026184E-07,-59.0562553405762
7.05008606062086E-07,-58.9442291259766
7.10008667097987E-07,-58.8384246826172
7.15008728133888E-07,-58.7428169250488
7.2000878916979E-07,-58.6613807678223
7.25008850205691E-07,-58.5980911254883
7.30008911241592E-07,-58.5457305908203
7.35008972277494E-07,-58.4949798583984
7.40009033313395E-07,-58.446662902832
7.45009094349296E-07,-58.4015998840332
7.50009155385198E-07,-58.3606262207031
7.55009216421099E-07,-58.3245620727539
7.60009277457E-07,-58.2942390441895
7.65009338492901E-07,-58.2704734802246
7.70009399528803E-07,-58.2541007995605
7.75009460564704E-07,-58.2459411621094
7.80009521600605E-07,-58.246826171875
7.85009582636507E-07,-58.2575759887695
7.90009643672408E-07,-58.2790184020996
7.95009704708309E-07,-58.3134803771973
8.00009765744211E-07,-58.3651237487793
8.05009826780112E-07,-58.4318733215332
8.10009887816013E-07,-58.5112113952637
8.15009948851915E-07,-58.6006317138672
8.20010009887816E-07,-58.6976127624512
8.25010070923717E-07,-58.7996482849121
8.30010131959619E-07,-58.9042205810547
8.3501019299552E-07,-59.0088195800781
8.40010254031421E-07,-59.1109275817871
8.45010315067323E-07,-59.2080345153809
8.50010376103224E-07,-59.2976303100586
8.55010437139125E-07,-59.3771934509277
8.60010498175026E-07,-59.4448204040527
8.65010559210928E-07,-59.5065879821777
8.70010620246829E-07,-59.5648498535156
8.7501068128273E-07,-59.619758605957
8.80010742318632E-07,-59.6714553833008
8.85010803354533E-07,-59.7200889587402
8.90010864390434E-07,-59.7658042907715
8.95010925426336E-07,-59.8087539672852
9.00010986462237E-07,-59.8490791320801
9.05011047498138E-07,-59.8869285583496
9.1001110853404E-07,-59.9224510192871
9.15011169569941E-07,-59.9557914733887
9.20011230605842E-07,-59.9870986938477
9.25011291641744E-07,-60.0165176391602
9.30011352677645E-07,-60.0489540100098
9.35011413713546E-07,-60.0875473022461
9.40011474749448E-07,-60.1298179626465
9.45011535785349E-07,-60.173282623291
9.5001159682125E-07,-60.2154541015625
9.55011657857151E-07,-60.2538566589355
9.60011718893053E-07,-60.286003112793
9.65011779928954E-07,-60.3094062805176
9.70011840964855E-07,-60.3215866088867
9.75011902000757E-07,-60.3200607299805
9.80011963036658E-07,-60.3023414611816
9.85012024072559E-07,-60.2659492492676
9.90012085108461E-07,-60.2084007263184
9.95012146144362E-07,-60.1253242492676
1.00001220718026E-06,-60.0114784240723
1.00501226821616E-06,-59.8710060119629
1.01001232925207E-06,-59.7086601257324
1.01501239028797E-06,-59.529182434082
1.02001245132387E-06,-59.3373336791992
1.02501251235977E-06,-59.1378555297852
1.03001257339567E-06,-58.9355049133301
1.03501263443157E-06,-58.7350273132324
1.04001269546747E-06,-58.5411796569824
1.04501275650338E-06,-58.3587036132813
1.05001281753928E-06,-58.1923522949219
1.05501287857518E-06,-58.0468788146973
1.06001293961108E-06,-57.9260597229004
1.06501300064698E-06,-57.8203048706055
1.07001306168288E-06,-57.7251892089844
1.07501312271878E-06,-57.639762878418
1.08001318375468E-06,-57.5630760192871
1.08501324479059E-06,-57.4941749572754
1.09001330582649E-06,-57.4321098327637
1.09501336686239E-06,-57.3759307861328
1.10001342789829E-06,-57.3246803283691
1.10501348893419E-06,-57.2774124145508
1.11001354997009E-06,-57.2331695556641
1.11501361100599E-06,-57.1910095214844
1.1200136720419E-06,-57.1499710083008
1.1250137330778E-06,-57.1091117858887
1.1300137941137E-06,-57.0639991760254
1.1350138551496E-06,-57.0127182006836
1.1400139161855E-06,-56.9580574035645
1.1450139772214E-06,-56.9028129577637
1.1500140382573E-06,-56.8497772216797
1.1550140992932E-06,-56.8017463684082
1.16001416032911E-06,-56.7615165710449
1.16501422136501E-06,-56.731876373291
1.17001428240091E-06,-56.7156219482422
1.17501434343681E-06,-56.7155532836914
1.18001440447271E-06,-56.7344551086426
1.18501446550861E-06,-56.7751274108887
1.19001452654451E-06,-56.8403625488281
1.19501458758041E-06,-56.935474395752
1.20001464861632E-06,-57.0674591064453
1.20501470965222E-06,-57.2313385009766
1.21001477068812E-06,-57.4213447570801
1.21501483172402E-06,-57.6317100524902
1.22001489275992E-06,-57.8566627502441
1.22501495379582E-06,-58.0904350280762
1.23001501483172E-06,-58.3272590637207
1.23501507586763E-06,-58.5613632202148
1.24001513690353E-06,-58.786979675293
1.24501519793943E-06,-58.9983444213867
1.25001525897533E-06,-59.1896820068359
1.25501532001123E-06,-59.3552284240723
1.26001538104713E-06,-59.4903259277344
1.26501544208303E-06,-59.6058464050293
1.27001550311893E-06,-59.7071495056152
1.27501556415484E-06,-59.7956581115723
1.28001562519074E-06,-59.8728141784668
1.28501568622664E-06,-59.9400405883789
1.29001574726254E-06,-59.9987678527832
1.29501580829844E-06,-60.0504302978516
1.30001586933434E-06,-60.0964584350586
1.30501593037024E-06,-60.1382789611816
1.31001599140614E-06,-60.1773223876953
1.31501605244205E-06,-60.2150268554688
1.32001611347795E-06,-60.252815246582
1.32501617451385E-06,-60.292121887207
1.33001623554975E-06,-60.3353958129883
1.33501629658565E-06,-60.382698059082
1.34001635762155E-06,-60.4318733215332
1.34501641865745E-06,-60.4807548522949
1.35001647969336E-06,-60.5271873474121
1.35501654072926E-06,-60.5690078735352
1.36001660176516E-06,-60.6040573120117
1.36501666280106E-06,-60.6301803588867
1.37001672383696E-06,-60.6452102661133
1.37501678487286E-06,-60.6469917297363
1.38001684590876E-06,-60.6333618164063
1.38501690694466E-06,-60.602165222168
1.39001696798057E-06,-60.5512390136719
1.39501702901647E-06,-60.4771118164063
1.40001709005237E-06,-60.3761138916016
1.40501715108827E-06,-60.251594543457
1.41001721212417E-06,-60.1073341369629
1.41501727316007E-06,-59.9471206665039
1.42001733419597E-06,-59.7747421264648
1.42501739523188E-06,-59.5939750671387
1.43001745626778E-06,-59.4086112976074
1.43501751730368E-06,-59.2224349975586
1.44001757833958E-06,-59.0392265319824
1.44501763937548E-06,-58.8627738952637
1.45001770041138E-06,-58.6968612670898
1.45501776144728E-06,-58.5452766418457
1.46001782248318E-06,-58.4107398986816
1.46501788351909E-06,-58.2822914123535
1.47001794455499E-06,-58.156364440918
1.47501800559089E-06,-58.033374786377
1.48001806662679E-06,-57.9137344360352
1.48501812766269E-06,-57.7978591918945
1.49001818869859E-06,-57.6861610412598
1.49501824973449E-06,-57.5790634155273
1.5000183107704E-06,-57.4769744873047
1.5050183718063E-06,-57.3803100585938
1.5100184328422E-06,-57.2894821166992
1.5150184938781E-06,-57.2049140930176
1.520018554914E-06,-57.127010345459
1.5250186159499E-06,-57.0561943054199
1.5300186769858E-06,-57.0108871459961
1.5350187380217E-06,-57.0030670166016
1.54001879905761E-06,-57.0234985351563
1.54501886009351E-06,-57.0629386901855
1.55001892112941E-06,-57.1121406555176
1.55501898216531E-06,-57.1618614196777
1.56001904320121E-06,-57.2028617858887
1.56501910423711E-06,-57.2258949279785
1.57001916527301E-06,-57.2217216491699
1.57501922630891E-06,-57.181095123291
1.58001928734482E-06,-57.0947723388672
1.58501934838072E-06,-56.9535140991211
1.59001940941662E-06,-56.7480773925781
1.59501947045252E-06,-56.4710655212402
1.60001953148842E-06,-56.1273460388184
1.60501959252432E-06,-55.7252960205078
1.61001965356022E-06,-55.2731666564941
1.61501971459613E-06,-54.7791976928711
1.62001977563203E-06,-54.251636505127
1.62501983666793E-06,-53.69873046875
1.63001989770383E-06,-53.128719329834
1.63501995873973E-06,-52.5498504638672
1.64002001977563E-06,-51.9703712463379
1.64502008081153E-06,-51.3985252380371
1.65002014184743E-06,-50.8425521850586
1.65502020288334E-06,-50.3107032775879
1.66002026391924E-06,-49.8077850341797
1.66502032495514E-06,-49.2965621948242
1.67002038599104E-06,-48.7690887451172
1.67502044702694E-06,-48.2309837341309
1.68002050806284E-06,-47.6878623962402
1.68502056909874E-06,-47.145336151123
1.69002063013465E-06,-46.609016418457
1.69502069117055E-06,-46.0845260620117
1.70002075220645E-06,-45.5774726867676
1.70502081324235E-06,-45.0934715270996
1.71002087427825E-06,-44.6381378173828
1.71502093531415E-06,-44.2170867919922
1.72002099635005E-06,-43.8359336853027
1.72502105738595E-06,-43.5002899169922
1.73002111842186E-06,-43.2110939025879
1.73502117945776E-06,-42.9627075195313
1.74002124049366E-06,-42.7508773803711
1.74502130152956E-06,-42.5713577270508
1.75002136256546E-06,-42.4198989868164
1.75502142360136E-06,-42.2922515869141
1.76002148463726E-06,-42.1841697692871
1.76502154567316E-06,-42.0914001464844
1.77002160670907E-06,-42.0096969604492
1.77502166774497E-06,-41.9348068237305
1.78002172878087E-06,-41.8624877929688
1.78502178981677E-06,-41.7884826660156
1.79002185085267E-06,-41.7085494995117
1.79502191188857E-06,-41.6168327331543
1.80002197292447E-06,-41.5088081359863
1.80502203396038E-06,-41.3902778625488
1.81002209499628E-06,-41.2676467895508
1.81502215603218E-06,-41.1473274230957
1.82002221706808E-06,-41.0357131958008
1.82502227810398E-06,-40.9392204284668
1.83002233913988E-06,-40.8642501831055
1.83502240017578E-06,-40.8172035217285
1.84002246121168E-06,-40.8044891357422
1.84502252224759E-06,-40.8325119018555
1.85002258328349E-06,-40.9076766967773
1.85502264431939E-06,-41.0363883972168
1.86002270535529E-06,-41.2266464233398
1.86502276639119E-06,-41.4997062683105
1.87002282742709E-06,-41.8500518798828
1.87502288846299E-06,-42.2643356323242
1.8800229494989E-06,-42.7292060852051
1.8850230105348E-06,-43.231315612793
1.8900230715707E-06,-43.7573165893555
1.8950231326066E-06,-44.2938537597656
1.9000231936425E-06,-44.827579498291
1.9050232546784E-06,-45.3451499938965
1.9100233157143E-06,-45.8332061767578
1.9150233767502E-06,-46.2784080505371
1.92002343778611E-06,-46.6673965454102
1.92502349882201E-06,-46.9868316650391
1.93002355985791E-06,-47.2389030456543
1.93502362089381E-06,-47.4400177001953
1.94002368192971E-06,-47.5981216430664
1.94502374296561E-06,-47.7211685180664
1.95002380400151E-06,-47.8171005249023
1.95502386503741E-06,-47.8938789367676
1.96002392607332E-06,-47.9594421386719
1.96502398710922E-06,-48.0217514038086
1.97002404814512E-06,-48.0887451171875
1.97502410918102E-06,-48.168384552002
1.98002417021692E-06,-48.268611907959
1.98502423125282E-06,-48.3973808288574
1.99002429228872E-06,-48.5626373291016
1.99502435332463E-06,-48.7709045410156
2.00002441436053E-06,-49.0184288024902
2.00502447539643E-06,-49.2978706359863
2.01002453643233E-06,-49.6019744873047
2.01502459746823E-06,-49.9234848022461
2.02002465850413E-06,-50.2551345825195
2.02502471954003E-06,-50.589672088623
2.03002478057593E-06,-50.9198341369629
2.03502484161184E-06,-51.2383651733398
2.04002490264774E-06,-51.5380058288574
2.04502496368364E-06,-51.8114929199219
2.05002502471954E-06,-52.0515747070313
2.05502508575544E-06,-52.2509841918945
2.06002514679134E-06,-52.4032135009766
2.06502520782724E-06,-52.5141792297363
2.07002526886315E-06,-52.5905303955078
2.07502532989905E-06,-52.6367988586426
2.08002539093495E-06,-52.6575202941895
2.08502545197085E-06,-52.6572341918945
2.09002551300675E-06,-52.6404762268066
2.09502557404265E-06,-52.6117820739746
2.10002563507855E-06,-52.5756912231445
2.10502569611445E-06,-52.5367317199707
2.11002575715036E-06,-52.4994468688965
2.11502581818626E-06,-52.4683723449707
2.12002587922216E-06,-52.4480438232422
2.12502594025806E-06,-52.4429969787598
2.13002600129396E-06,-52.4377670288086
2.13502606232986E-06,-52.4168319702148
2.14002612336576E-06,-52.3846549987793
2.14502618440166E-06,-52.3456954956055
2.15002624543757E-06,-52.3044090270996
2.15502630647347E-06,-52.2652587890625
2.16002636750937E-06,-52.2327003479004
2.16502642854527E-06,-52.2111930847168
2.17002648958117E-06,-52.2052001953125
2.17502655061707E-06,-52.2191772460938
2.18002661165297E-06,-52.2575836181641
2.18502667268888E-06,-52.324878692627
2.19002673372478E-06,-52.4255218505859
2.19502679476068E-06,-52.5647888183594
2.20002685579658E-06,-52.7450485229492
2.20502691683248E-06,-52.9608917236328
2.21002697786838E-06,-53.2065238952637
2.21502703890428E-06,-53.4761390686035
2.22002709994018E-06,-53.7639427185059
2.22502716097609E-06,-54.0641288757324
2.23002722201199E-06,-54.370906829834
2.23502728304789E-06,-54.6784744262695
2.24002734408379E-06,-54.9810256958008
2.24502740511969E-06,-55.2727699279785
2.25002746615559E-06,-55.5479011535645
2.25502752719149E-06,-55.8006210327148
2.2600275882274E-06,-56.0267791748047
2.2650276492633E-06,-56.2434539794922
2.2700277102992E-06,-56.4561157226563
2.2750277713351E-06,-56.6640243530273
2.280027832371E-06,-56.866455078125
2.2850278934069E-06,-57.0626640319824
2.2900279544428E-06,-57.2519187927246
2.2950280154787E-06,-57.4334869384766
2.30002807651461E-06,-57.6066284179688
2.30502813755051E-06,-57.7706146240234
2.31002819858641E-06,-57.9247093200684
2.31502825962231E-06,-58.0681762695313
2.32002832065821E-06,-58.2002792358398
2.32502838169411E-06,-58.3202857971191
2.33002844273001E-06,-58.4376640319824
2.33502850376592E-06,-58.559627532959
2.34002856480182E-06,-58.682071685791
2.34502862583772E-06,-58.8008880615234
2.35002868687362E-06,-58.9119644165039
2.35502874790952E-06,-59.0111885070801
2.36002880894542E-06,-59.0944557189941
2.36502886998132E-06,-59.1576538085938
2.37002893101722E-06,-59.1966781616211
2.37502899205313E-06,-59.2074127197266
2.38002905308903E-06,-59.1857490539551
2.38502911412493E-06,-59.1275825500488
2.39002917516083E-06,-59.0288009643555
2.39502923619673E-06,-58.8778648376465
2.40002929723263E-06,-58.6541976928711
2.40502935826853E-06,-58.3680877685547
2.41002941930443E-06,-58.0319976806641
2.41502948034034E-06,-57.6583862304688
2.42002954137624E-06,-57.2597122192383
2.42502960241214E-06,-56.8484382629395
2.43002966344804E-06,-56.4370193481445
2.43502972448394E-06,-56.0379219055176
2.44002978551984E-06,-55.6635971069336
2.44502984655574E-06,-55.3265075683594
2.45002990759165E-06,-55.0391120910645
2.45502996862755E-06,-54.8138732910156
2.46003002966345E-06,-54.6617240905762
2.46503009069935E-06,-54.569580078125
