Trace
Swept SA
A.19.55,N9020B
508 AB2 B25 B40 B85 DP2 DP4 EP2 FS1 FS2 MPB RTL ,01
Segment,0
Number of Points,81920
Sweep Time,0.0004096
Start Frequency,2400000000
Stop Frequency,2400000000
Average Count,0
Average Type,LogPower(Video)
RBW,3000000
RBW Filter,Gaussian
RBW Filter BW,3dB
VBW,3000000
Sweep Type,Swept
X Axis Scale,Lin
PreAmp State,Off
PreAmp Band,Low
Trigger Source,Ext1
Trigger Level,1.2
Trigger Slope,Positive
Trigger Delay,1E-06
Phase Noise Optimization,Fast
Swept If Gain,Low
FFT If Gain,Autorange
RF Coupling,AC
FFT Width,411900
Ext Ref,10000000
Input,RF
RF Calibrator,Off
Attenuation,6
Ref Level Offset,0
External Gain,0
Trace Type,Clearwrite
Detector,Normal
Trace Math,Off
Trace Math Oper1,Trace5
Trace Math Oper2,Trace6
Trace Math Offset,0
Normalize,Off
Trace Name,Trace1
X Axis Units,s
Y Axis Units,dBm
DATA
0,-58.3238067626953
5.00006103590132E-09,-58.903694152832
1.00001220718026E-08,-59.4622650146484
1.50001831077039E-08,-59.997428894043
2.00002441436053E-08,-60.5070838928223
2.50003051795066E-08,-60.9891395568848
3.00003662154079E-08,-61.4415016174316
3.50004272513092E-08,-61.8620719909668
4.00004882872105E-08,-62.2487602233887
4.50005493231118E-08,-62.5994682312012
5.00006103590132E-08,-62.9121017456055
5.50006713949145E-08,-63.1845703125
6.00007324308158E-08,-63.4114379882813
6.50007934667171E-08,-63.5525970458984
7.00008545026184E-08,-63.6094245910645
7.50009155385197E-08,-63.5979843139648
8.00009765744211E-08,-63.5343437194824
8.50010376103224E-08,-63.4345664978027
9.00010986462237E-08,-63.3147239685059
9.5001159682125E-08,-63.1908760070801
1.00001220718026E-07,-63.0790939331055
1.05001281753928E-07,-62.9954452514648
1.10001342789829E-07,-62.9559936523438
1.1500140382573E-07,-62.976806640625
1.20001464861632E-07,-63.0739517211914
1.25001525897533E-07,-63.2634925842285
1.30001586933434E-07,-63.5813789367676
1.35001647969336E-07,-64.0339508056641
1.40001709005237E-07,-64.5928649902344
1.45001770041138E-07,-65.2297744750977
1.50001831077039E-07,-65.9163436889648
1.55001892112941E-07,-66.6242218017578
1.60001953148842E-07,-67.325065612793
1.65002014184743E-07,-67.9905319213867
1.70002075220645E-07,-68.5922775268555
1.75002136256546E-07,-69.1019668579102
1.80002197292447E-07,-69.4912414550781
1.85002258328349E-07,-69.7317657470703
1.9000231936425E-07,-69.7951965332031
1.95002380400151E-07,-69.6566009521484
2.00002441436053E-07,-69.3246459960938
2.05002502471954E-07,-68.8268585205078
2.10002563507855E-07,-68.1909103393555
2.15002624543757E-07,-67.4445114135742
2.20002685579658E-07,-66.6153564453125
2.25002746615559E-07,-65.7311325073242
2.30002807651461E-07,-64.8195343017578
2.35002868687362E-07,-63.9082679748535
2.40002929723263E-07,-63.0250129699707
2.45002990759165E-07,-62.1974678039551
2.50003051795066E-07,-61.4533348083496
2.55003112830967E-07,-60.8202972412109
2.60003173866868E-07,-60.318431854248
2.6500323490277E-07,-59.8688545227051
2.70003295938671E-07,-59.445484161377
2.75003356974572E-07,-59.0508804321289
2.80003418010474E-07,-58.6876068115234
2.85003479046375E-07,-58.3582191467285
2.90003540082276E-07,-58.0652809143066
2.95003601118178E-07,-57.8113479614258
3.00003662154079E-07,-57.5989799499512
3.0500372318998E-07,-57.4307403564453
3.10003784225882E-07,-57.3091850280762
3.15003845261783E-07,-57.2368774414063
3.20003906297684E-07,-57.2163772583008
3.25003967333586E-07,-57.2502403259277
3.30004028369487E-07,-57.3601264953613
3.35004089405388E-07,-57.5578002929688
3.4000415044129E-07,-57.8310050964355
3.45004211477191E-07,-58.1674690246582
3.50004272513092E-07,-58.5549354553223
3.55004333548993E-07,-58.9811363220215
3.60004394584895E-07,-59.4338073730469
3.65004455620796E-07,-59.9006881713867
3.70004516656697E-07,-60.3695106506348
3.75004577692599E-07,-60.828010559082
3.800046387285E-07,-61.2639236450195
3.85004699764401E-07,-61.6649932861328
3.90004760800303E-07,-62.0189437866211
3.95004821836204E-07,-62.3314743041992
4.00004882872105E-07,-62.6517601013184
4.05004943908007E-07,-62.978588104248
4.10005004943908E-07,-63.3063774108887
4.15005065979809E-07,-63.6295509338379
4.20005127015711E-07,-63.9425239562988
4.25005188051612E-07,-64.2397155761719
4.30005249087513E-07,-64.5155563354492
4.35005310123415E-07,-64.7644500732422
4.40005371159316E-07,-64.980827331543
4.45005432195217E-07,-65.1591110229492
4.50005493231119E-07,-65.2937164306641
4.5500555426702E-07,-65.3790588378906
4.60005615302921E-07,-65.4063262939453
4.65005676338822E-07,-65.3352508544922
4.70005737374724E-07,-65.1703567504883
4.75005798410625E-07,-64.9309463500977
4.80005859446526E-07,-64.6363296508789
4.85005920482428E-07,-64.3058013916016
4.90005981518329E-07,-63.9586791992188
4.9500604255423E-07,-63.6142692565918
5.00006103590132E-07,-63.2918701171875
5.05006164626033E-07,-63.0107955932617
5.10006225661934E-07,-62.7903442382813
5.15006286697836E-07,-62.6498336791992
5.20006347733737E-07,-62.6085586547852
5.25006408769638E-07,-62.6858329772949
5.3000646980554E-07,-62.907341003418
5.35006530841441E-07,-63.2688751220703
5.40006591877342E-07,-63.7448921203613
5.45006652913243E-07,-64.3098526000977
5.50006713949145E-07,-64.9382095336914
5.55006774985046E-07,-65.6044235229492
5.60006836020948E-07,-66.2829513549805
5.65006897056849E-07,-66.9482574462891
5.7000695809275E-07,-67.5747909545898
5.75007019128651E-07,-68.1370162963867
5.80007080164553E-07,-68.6093902587891
5.85007141200454E-07,-68.9663619995117
5.90007202236355E-07,-69.1824035644531
5.95007263272257E-07,-69.2432250976563
6.00007324308158E-07,-69.1792373657227
6.05007385344059E-07,-69.0087051391602
6.10007446379961E-07,-68.7478561401367
6.15007507415862E-07,-68.4129180908203
6.20007568451763E-07,-68.0201034545898
6.25007629487665E-07,-67.5856552124023
6.30007690523566E-07,-67.1257858276367
6.35007751559467E-07,-66.6567306518555
6.40007812595369E-07,-66.1947021484375
6.4500787363127E-07,-65.7559432983398
6.50007934667171E-07,-65.3566665649414
6.55007995703072E-07,-65.0131072998047
6.60008056738974E-07,-64.736946105957
6.65008117774875E-07,-64.4812469482422
6.70008178810776E-07,-64.2307052612305
6.75008239846678E-07,-63.9870872497559
6.80008300882579E-07,-63.7521553039551
6.8500836191848E-07,-63.5276679992676
6.90008422954382E-07,-63.3153877258301
6.95008483990283E-07,-63.117073059082
7.00008545026184E-07,-62.9344863891602
7.05008606062086E-07,-62.7693901062012
7.10008667097987E-07,-62.6235427856445
7.15008728133888E-07,-62.4987030029297
7.2000878916979E-07,-62.3966331481934
7.25008850205691E-07,-62.3190994262695
7.30008911241592E-07,-62.2765846252441
7.35008972277494E-07,-62.2742233276367
7.40009033313395E-07,-62.3057098388672
7.45009094349296E-07,-62.3647575378418
7.50009155385198E-07,-62.445068359375
7.55009216421099E-07,-62.5403480529785
7.60009277457E-07,-62.6443023681641
7.65009338492901E-07,-62.7506408691406
7.70009399528803E-07,-62.8530654907227
7.75009460564704E-07,-62.9452819824219
7.80009521600605E-07,-63.02099609375
7.85009582636507E-07,-63.0739135742188
7.90009643672408E-07,-63.0977401733398
7.95009704708309E-07,-63.0894927978516
8.00009765744211E-07,-63.0581283569336
8.05009826780112E-07,-63.0077285766602
8.10009887816013E-07,-62.9417190551758
8.15009948851915E-07,-62.8635368347168
8.20010009887816E-07,-62.7766075134277
8.25010070923717E-07,-62.6843605041504
8.30010131959619E-07,-62.5902328491211
8.3501019299552E-07,-62.4976463317871
8.40010254031421E-07,-62.4100379943848
8.45010315067323E-07,-62.3308334350586
8.50010376103224E-07,-62.2634658813477
8.55010437139125E-07,-62.211368560791
8.60010498175026E-07,-62.1733093261719
8.65010559210928E-07,-62.0958595275879
8.70010620246829E-07,-61.9752197265625
8.7501068128273E-07,-61.8271102905273
8.80010742318632E-07,-61.6672630310059
8.85010803354533E-07,-61.5114097595215
8.90010864390434E-07,-61.3752708435059
8.95010925426336E-07,-61.2745819091797
9.00010986462237E-07,-61.2250671386719
9.05011047498138E-07,-61.2424507141113
9.1001110853404E-07,-61.3424682617188
9.15011169569941E-07,-61.540843963623
9.20011230605842E-07,-61.8533058166504
9.25011291641744E-07,-62.295581817627
9.30011352677645E-07,-62.9444007873535
9.35011413713546E-07,-63.8340377807617
9.40011474749448E-07,-64.9165420532227
9.45011535785349E-07,-66.1439514160156
9.5001159682125E-07,-67.4683151245117
9.55011657857151E-07,-68.8416748046875
9.60011718893053E-07,-70.2160797119141
9.65011779928954E-07,-71.543571472168
9.70011840964855E-07,-72.7761993408203
9.75011902000757E-07,-73.8660049438477
9.80011963036658E-07,-74.7650375366211
9.85012024072559E-07,-75.4253311157227
9.90012085108461E-07,-75.798942565918
9.95012146144362E-07,-75.8489532470703
1.00001220718026E-06,-75.6045837402344
1.00501226821616E-06,-75.1081771850586
1.01001232925207E-06,-74.4009704589844
1.01501239028797E-06,-73.5241928100586
1.02001245132387E-06,-72.5190887451172
1.02501251235977E-06,-71.426887512207
1.03001257339567E-06,-70.2888336181641
1.03501263443157E-06,-69.1461563110352
1.04001269546747E-06,-68.0400848388672
1.04501275650338E-06,-67.0118713378906
1.05001281753928E-06,-66.1027297973633
1.05501287857518E-06,-65.3539123535156
1.06001293961108E-06,-64.7971572875977
1.06501300064698E-06,-64.3369064331055
1.07001306168288E-06,-63.9346084594727
1.07501312271878E-06,-63.586353302002
1.08001318375468E-06,-63.2882232666016
1.08501324479059E-06,-63.0363006591797
1.09001330582649E-06,-62.8266792297363
1.09501336686239E-06,-62.6554374694824
1.10001342789829E-06,-62.5186576843262
1.10501348893419E-06,-62.4124336242676
1.11001354997009E-06,-62.3328437805176
1.11501361100599E-06,-62.2759742736816
1.1200136720419E-06,-62.2379112243652
1.1250137330778E-06,-62.2147369384766
1.1300137941137E-06,-62.2333488464355
1.1350138551496E-06,-62.316291809082
1.1400139161855E-06,-62.453125
1.1450139772214E-06,-62.6334114074707
1.1500140382573E-06,-62.8467140197754
1.1550140992932E-06,-63.082592010498
1.16001416032911E-06,-63.3306083679199
1.16501422136501E-06,-63.5803260803223
1.17001428240091E-06,-63.8213043212891
1.17501434343681E-06,-64.0431137084961
1.18001440447271E-06,-64.2352981567383
1.18501446550861E-06,-64.3874359130859
1.19001452654451E-06,-64.4890823364258
1.19501458758041E-06,-64.5368499755859
1.20001464861632E-06,-64.5498733520508
1.20501470965222E-06,-64.5336761474609
1.21001477068812E-06,-64.4923095703125
1.21501483172402E-06,-64.4297790527344
1.22001489275992E-06,-64.3501358032227
1.22501495379582E-06,-64.2574005126953
1.23001501483172E-06,-64.1556091308594
1.23501507586763E-06,-64.0487899780273
1.24001513690353E-06,-63.9409790039063
1.24501519793943E-06,-63.8362007141113
1.25001525897533E-06,-63.7384910583496
1.25501532001123E-06,-63.6518821716309
1.26001538104713E-06,-63.5711669921875
1.26501544208303E-06,-63.3892440795898
1.27001550311893E-06,-63.1010704040527
1.27501556415484E-06,-62.7407608032227
1.28001562519074E-06,-62.3424453735352
1.28501568622664E-06,-61.9402351379395
1.29001574726254E-06,-61.5682563781738
1.29501580829844E-06,-61.2606315612793
1.30001586933434E-06,-61.0514755249023
1.30501593037024E-06,-60.9749145507813
1.31001599140614E-06,-61.0650672912598
1.31501605244205E-06,-61.3560523986816
1.32001611347795E-06,-61.8819923400879
1.32501617451385E-06,-62.6770133972168
1.33001623554975E-06,-63.8834266662598
1.33501629658565E-06,-65.5592880249023
1.34001635762155E-06,-67.6122970581055
1.34501641865745E-06,-69.9501647949219
1.35001647969336E-06,-72.480598449707
1.35501654072926E-06,-75.1113128662109
1.36001660176516E-06,-77.7500076293945
1.36501666280106E-06,-80.3043975830078
1.37001672383696E-06,-82.6821823120117
1.37501678487286E-06,-84.7910766601563
1.38001684590876E-06,-86.5387954711914
1.38501690694466E-06,-87.8330307006836
1.39001696798057E-06,-88.5815048217773
1.39501702901647E-06,-88.716911315918
1.40001709005237E-06,-88.3057708740234
1.40501715108827E-06,-87.4266204833984
1.41001721212417E-06,-86.1548309326172
1.41501727316007E-06,-84.5657806396484
1.42001733419597E-06,-82.7348403930664
1.42501739523188E-06,-80.7373886108398
1.43001745626778E-06,-78.6488037109375
1.43501751730368E-06,-76.5444717407227
1.44001757833958E-06,-74.499755859375
1.44501763937548E-06,-72.5900344848633
1.45001770041138E-06,-70.8906936645508
1.45501776144728E-06,-69.4771041870117
1.46001782248318E-06,-68.40869140625
1.46501788351909E-06,-67.5272369384766
1.47001794455499E-06,-66.7625045776367
1.47501800559089E-06,-66.1015243530273
1.48001806662679E-06,-65.5313262939453
1.48501812766269E-06,-65.0389404296875
1.49001818869859E-06,-64.6113967895508
1.49501824973449E-06,-64.2357330322266
1.5000183107704E-06,-63.8989677429199
1.5050183718063E-06,-63.5881423950195
1.5100184328422E-06,-63.290283203125
1.5150184938781E-06,-62.9924240112305
1.520018554914E-06,-62.6815910339355
1.5250186159499E-06,-62.3448219299316
1.5300186769858E-06,-62.0186805725098
1.5350187380217E-06,-61.742374420166
1.54001879905761E-06,-61.5068664550781
1.54501886009351E-06,-61.3031349182129
1.55001892112941E-06,-61.122142791748
1.55501898216531E-06,-60.9548721313477
1.56001904320121E-06,-60.7922821044922
1.56501910423711E-06,-60.6253509521484
1.57001916527301E-06,-60.4450492858887
1.57501922630891E-06,-60.2423439025879
1.58001928734482E-06,-60.0082130432129
1.58501934838072E-06,-59.7336196899414
1.59001940941662E-06,-59.409538269043
1.59501947045252E-06,-59.0313568115234
1.60001953148842E-06,-58.6110038757324
1.60501959252432E-06,-58.1546020507813
1.61001965356022E-06,-57.6674194335938
1.61501971459613E-06,-57.1547393798828
1.62001977563203E-06,-56.6218299865723
1.62501983666793E-06,-56.073974609375
1.63001989770383E-06,-55.5164451599121
1.63501995873973E-06,-54.954517364502
1.64002001977563E-06,-54.3934669494629
1.64502008081153E-06,-53.8385734558105
1.65002014184743E-06,-53.2951049804688
1.65502020288334E-06,-52.7683448791504
1.66002026391924E-06,-52.261402130127
1.66502032495514E-06,-51.7508888244629
1.67002038599104E-06,-51.2317314147949
1.67502044702694E-06,-50.7073593139648
1.68002050806284E-06,-50.1812210083008
1.68502056909874E-06,-49.6567459106445
1.69002063013465E-06,-49.1373825073242
1.69502069117055E-06,-48.6265640258789
1.70002075220645E-06,-48.1277313232422
1.70502081324235E-06,-47.6443214416504
1.71002087427825E-06,-47.1797714233398
1.71502093531415E-06,-46.7375259399414
1.72002099635005E-06,-46.3210182189941
1.72502105738595E-06,-45.9336891174316
1.73002111842186E-06,-45.568531036377
1.73502117945776E-06,-45.216968536377
1.74002124049366E-06,-44.8800888061523
1.74502130152956E-06,-44.5589714050293
1.75002136256546E-06,-44.2547073364258
1.75502142360136E-06,-43.9683799743652
1.76002148463726E-06,-43.7010765075684
1.76502154567316E-06,-43.4538764953613
1.77002160670907E-06,-43.2278747558594
1.77502166774497E-06,-43.0241508483887
1.78002172878087E-06,-42.8437881469727
1.78502178981677E-06,-42.6878776550293
1.79002185085267E-06,-42.5575065612793
1.79502191188857E-06,-42.4519996643066
1.80002197292447E-06,-42.3665580749512
1.80502203396038E-06,-42.3014221191406
1.81002209499628E-06,-42.2572555541992
1.81502215603218E-06,-42.2347259521484
1.82002221706808E-06,-42.2345085144043
1.82502227810398E-06,-42.2572593688965
1.83002233913988E-06,-42.3036575317383
1.83502240017578E-06,-42.3743629455566
1.84002246121168E-06,-42.4700469970703
1.84502252224759E-06,-42.591381072998
1.85002258328349E-06,-42.7390251159668
1.85502264431939E-06,-42.9136505126953
1.86002270535529E-06,-43.1159362792969
1.86502276639119E-06,-43.3462753295898
1.87002282742709E-06,-43.604061126709
1.87502288846299E-06,-43.8885498046875
1.8800229494989E-06,-44.1989974975586
1.8850230105348E-06,-44.5346527099609
1.8900230715707E-06,-44.8947715759277
1.8950231326066E-06,-45.2786026000977
1.9000231936425E-06,-45.6854057312012
1.9050232546784E-06,-46.1144332885742
1.9100233157143E-06,-46.5649299621582
1.9150233767502E-06,-47.0361595153809
1.92002343778611E-06,-47.5273704528809
1.92502349882201E-06,-48.0378112792969
1.93002355985791E-06,-48.5912094116211
1.93502362089381E-06,-49.2044258117676
1.94002368192971E-06,-49.8664245605469
1.94502374296561E-06,-50.5661697387695
1.95002380400151E-06,-51.2926292419434
1.95502386503741E-06,-52.0347595214844
1.96002392607332E-06,-52.7815361022949
1.96502398710922E-06,-53.521915435791
1.97002404814512E-06,-54.2448654174805
1.97502410918102E-06,-54.9393463134766
1.98002417021692E-06,-55.5943336486816
1.98502423125282E-06,-56.1987800598145
1.99002429228872E-06,-56.7416572570801
1.99502435332463E-06,-57.2219924926758
2.00002441436053E-06,-57.6672477722168
2.00502447539643E-06,-58.0811767578125
2.01002453643233E-06,-58.4652557373047
2.01502459746823E-06,-58.8209495544434
2.02002465850413E-06,-59.1497344970703
2.02502471954003E-06,-59.4530754089355
2.03002478057593E-06,-59.7324447631836
2.03502484161184E-06,-59.989315032959
2.04002490264774E-06,-60.225154876709
2.04502496368364E-06,-60.4414367675781
2.05002502471954E-06,-60.6396255493164
2.05502508575544E-06,-60.8212013244629
2.06002514679134E-06,-60.9844360351563
2.06502520782724E-06,-61.0923919677734
2.07002526886315E-06,-61.1432495117188
2.07502532989905E-06,-61.1487121582031
2.08002539093495E-06,-61.1204719543457
2.08502545197085E-06,-61.0702285766602
2.09002551300675E-06,-61.0096817016602
2.09502557404265E-06,-60.9505271911621
2.10002563507855E-06,-60.9044609069824
2.10502569611445E-06,-60.8831825256348
2.11002575715036E-06,-60.8983879089355
2.11502581818626E-06,-60.9617805480957
2.12002587922216E-06,-61.0850486755371
2.12502594025806E-06,-61.279899597168
2.13002600129396E-06,-61.5454597473145
2.13502606232986E-06,-61.8680839538574
2.14002612336576E-06,-62.2402839660645
2.14502618440166E-06,-62.6545791625977
2.15002624543757E-06,-63.1034889221191
2.15502630647347E-06,-63.5795249938965
2.16002636750937E-06,-64.0752105712891
2.16502642854527E-06,-64.5830535888672
2.17002648958117E-06,-65.0955810546875
2.17502655061707E-06,-65.6053009033203
2.18002661165297E-06,-66.104736328125
2.18502667268888E-06,-66.5864028930664
2.19002673372478E-06,-67.0428161621094
2.19502679476068E-06,-67.4773864746094
2.20002685579658E-06,-67.9199295043945
2.20502691683248E-06,-68.369758605957
2.21002697786838E-06,-68.8235473632813
2.21502703890428E-06,-69.2779541015625
2.22002709994018E-06,-69.7296447753906
2.22502716097609E-06,-70.17529296875
2.23002722201199E-06,-70.6115646362305
2.23502728304789E-06,-71.0351181030273
2.24002734408379E-06,-71.4426193237305
2.24502740511969E-06,-71.8307495117188
2.25002746615559E-06,-72.196159362793
2.25502752719149E-06,-72.5355224609375
2.2600275882274E-06,-72.8486175537109
2.2650276492633E-06,-73.1708297729492
2.2700277102992E-06,-73.5056304931641
2.2750277713351E-06,-73.8435897827148
2.280027832371E-06,-74.1752471923828
2.2850278934069E-06,-74.4911651611328
2.2900279544428E-06,-74.7818984985352
2.2950280154787E-06,-75.0380096435547
2.30002807651461E-06,-75.2500534057617
2.30502813755051E-06,-75.408576965332
2.31002819858641E-06,-75.5041427612305
2.31502825962231E-06,-75.5273056030273
2.32002832065821E-06,-75.4686279296875
2.32502838169411E-06,-75.3186569213867
2.33002844273001E-06,-75.0567398071289
2.33502850376592E-06,-74.6794662475586
2.34002856480182E-06,-74.2032699584961
2.34502862583772E-06,-73.6445846557617
2.35002868687362E-06,-73.0198287963867
2.35502874790952E-06,-72.3454437255859
2.36002880894542E-06,-71.6378555297852
2.36502886998132E-06,-70.9134979248047
2.37002893101722E-06,-70.1887969970703
2.37502899205313E-06,-69.4801788330078
2.38002905308903E-06,-68.804084777832
2.38502911412493E-06,-68.1769409179688
2.39002917516083E-06,-67.6151657104492
2.39502923619673E-06,-67.1159820556641
2.40002929723263E-06,-66.6267929077148
2.40502935826853E-06,-66.1453857421875
2.41002941930443E-06,-65.6741027832031
2.41502948034034E-06,-65.2152633666992
2.42002954137624E-06,-64.7712097167969
2.42502960241214E-06,-64.3442611694336
2.43002966344804E-06,-63.9367599487305
2.43502972448394E-06,-63.5510368347168
2.44002978551984E-06,-63.1894187927246
2.44502984655574E-06,-62.8542442321777
2.45002990759165E-06,-62.5478401184082
2.45502996862755E-06,-62.2725372314453
2.46003002966345E-06,-62.028923034668
2.46503009069935E-06,-61.7973136901855
2.47003015173525E-06,-61.5753440856934
