Trace
Swept SA
A.19.55,N9020B
508 AB2 B25 B40 B85 DP2 DP4 EP2 FS1 FS2 MPB RTL ,01
Segment,0
Number of Points,81920
Sweep Time,0.0004096
Start Frequency,2400000000
Stop Frequency,2400000000
Average Count,0
Average Type,LogPower(Video)
RBW,3000000
RBW Filter,Gaussian
RBW Filter BW,3dB
VBW,3000000
Sweep Type,Swept
X Axis Scale,Lin
PreAmp State,Off
PreAmp Band,Low
Trigger Source,Ext1
Trigger Level,1.2
Trigger Slope,Positive
Trigger Delay,1E-06
Phase Noise Optimization,Fast
Swept If Gain,Low
FFT If Gain,Autorange
RF Coupling,AC
FFT Width,411900
Ext Ref,10000000
Input,RF
RF Calibrator,Off
Attenuation,6
Ref Level Offset,0
External Gain,0
Trace Type,Clearwrite
Detector,Normal
Trace Math,Off
Trace Math Oper1,Trace5
Trace Math Oper2,Trace6
Trace Math Offset,0
Normalize,Off
Trace Name,Trace1
X Axis Units,s
Y Axis Units,dBm
DATA
0,-71.7511367797852
5.00006103590132E-09,-71.7444381713867
1.00001220718026E-08,-71.5946578979492
1.50001831077039E-08,-71.3320770263672
2.00002441436053E-08,-70.9869689941406
2.50003051795066E-08,-70.5895919799805
3.00003662154079E-08,-70.1702423095703
3.50004272513092E-08,-69.7591705322266
4.00004882872105E-08,-69.3866500854492
4.50005493231118E-08,-69.0829696655273
5.00006103590132E-08,-68.8783798217773
5.50006713949145E-08,-68.8031692504883
6.00007324308158E-08,-68.8855972290039
6.50007934667171E-08,-69.1139221191406
7.00008545026184E-08,-69.4606246948242
7.50009155385197E-08,-69.9021987915039
8.00009765744211E-08,-70.4151611328125
8.50010376103224E-08,-70.9760208129883
9.00010986462237E-08,-71.561279296875
9.5001159682125E-08,-72.1474533081055
1.00001220718026E-07,-72.7110443115234
1.05001281753928E-07,-73.2285537719727
1.10001342789829E-07,-73.6765060424805
1.1500140382573E-07,-74.0313949584961
1.20001464861632E-07,-74.2697372436523
1.25001525897533E-07,-74.3680419921875
1.30001586933434E-07,-74.3257446289063
1.35001647969336E-07,-74.1687164306641
1.40001709005237E-07,-73.9131011962891
1.45001770041138E-07,-73.5750427246094
1.50001831077039E-07,-73.1706848144531
1.55001892112941E-07,-72.7161712646484
1.60001953148842E-07,-72.2276458740234
1.65002014184743E-07,-71.7212448120117
1.70002075220645E-07,-71.2131271362305
1.75002136256546E-07,-70.7194290161133
1.80002197292447E-07,-70.2562866210938
1.85002258328349E-07,-69.8398590087891
1.9000231936425E-07,-69.4862747192383
1.95002380400151E-07,-69.1850357055664
2.00002441436053E-07,-68.8630599975586
2.05002502471954E-07,-68.5243682861328
2.10002563507855E-07,-68.1795120239258
2.15002624543757E-07,-67.8390731811523
2.20002685579658E-07,-67.5135955810547
2.25002746615559E-07,-67.2136611938477
2.30002807651461E-07,-66.949836730957
2.35002868687362E-07,-66.7326736450195
2.40002929723263E-07,-66.57275390625
2.45002990759165E-07,-66.4806365966797
2.50003051795066E-07,-66.4668807983398
2.55003112830967E-07,-66.5420532226563
2.60003173866868E-07,-66.7207565307617
2.6500323490277E-07,-67.0544662475586
2.70003295938671E-07,-67.5343170166016
2.75003356974572E-07,-68.1324768066406
2.80003418010474E-07,-68.8211288452148
2.85003479046375E-07,-69.5724487304688
2.90003540082276E-07,-70.3586349487305
2.95003601118178E-07,-71.15185546875
3.00003662154079E-07,-71.9242858886719
3.0500372318998E-07,-72.6481246948242
3.10003784225882E-07,-73.295539855957
3.15003845261783E-07,-73.8387145996094
3.20003906297684E-07,-74.2498245239258
3.25003967333586E-07,-74.5010681152344
3.30004028369487E-07,-74.6011581420898
3.35004089405388E-07,-74.5870971679688
3.4000415044129E-07,-74.4734115600586
3.45004211477191E-07,-74.2746658325195
3.50004272513092E-07,-74.0053939819336
3.55004333548993E-07,-73.6801452636719
3.60004394584895E-07,-73.3134765625
3.65004455620796E-07,-72.9199142456055
3.70004516656697E-07,-72.5140228271484
3.75004577692599E-07,-72.1103439331055
3.800046387285E-07,-71.7234268188477
3.85004699764401E-07,-71.367805480957
3.90004760800303E-07,-71.0580444335938
3.95004821836204E-07,-70.782356262207
4.00004882872105E-07,-70.4685592651367
4.05004943908007E-07,-70.1220932006836
4.10005004943908E-07,-69.7549285888672
4.15005065979809E-07,-69.3790512084961
4.20005127015711E-07,-69.0064315795898
4.25005188051612E-07,-68.649040222168
4.30005249087513E-07,-68.3188552856445
4.35005310123415E-07,-68.0278549194336
4.40005371159316E-07,-67.7880096435547
4.45005432195217E-07,-67.6112899780273
4.50005493231119E-07,-67.5096740722656
4.5500555426702E-07,-67.4951400756836
4.60005615302921E-07,-67.5830154418945
4.65005676338822E-07,-67.8174438476563
4.70005737374724E-07,-68.1881637573242
4.75005798410625E-07,-68.6686630249023
4.80005859446526E-07,-69.2324447631836
4.85005920482428E-07,-69.8529891967773
4.90005981518329E-07,-70.503776550293
4.9500604255423E-07,-71.1583099365234
5.00006103590132E-07,-71.7900695800781
5.05006164626033E-07,-72.3725509643555
5.10006225661934E-07,-72.8792343139648
5.15006286697836E-07,-73.2836074829102
5.20006347733737E-07,-73.5591735839844
5.25006408769638E-07,-73.6794052124023
5.3000646980554E-07,-73.6466979980469
5.35006530841441E-07,-73.4922790527344
5.40006591877342E-07,-73.2329025268555
5.45006652913243E-07,-72.8853149414063
5.50006713949145E-07,-72.4662628173828
5.55006774985046E-07,-71.9925155639648
5.60006836020948E-07,-71.4808120727539
5.65006897056849E-07,-70.9479141235352
5.7000695809275E-07,-70.4105606079102
5.75007019128651E-07,-69.8855133056641
5.80007080164553E-07,-69.3895263671875
5.85007141200454E-07,-68.939338684082
5.90007202236355E-07,-68.5517196655273
5.95007263272257E-07,-68.2226486206055
6.00007324308158E-07,-67.8953247070313
6.05007385344059E-07,-67.5684127807617
6.10007446379961E-07,-67.2455291748047
6.15007507415862E-07,-66.9302749633789
6.20007568451763E-07,-66.6262664794922
6.25007629487665E-07,-66.3371124267578
6.30007690523566E-07,-66.0664291381836
6.35007751559467E-07,-65.8178253173828
6.40007812595369E-07,-65.5949020385742
6.4500787363127E-07,-65.4012832641602
6.50007934667171E-07,-65.2405700683594
6.55007995703072E-07,-65.1163787841797
6.60008056738974E-07,-65.0330581665039
6.65008117774875E-07,-65.0006942749023
6.70008178810776E-07,-65.0161514282227
6.75008239846678E-07,-65.0725708007813
6.80008300882579E-07,-65.1631011962891
6.8500836191848E-07,-65.2808837890625
6.90008422954382E-07,-65.419059753418
6.95008483990283E-07,-65.5707778930664
7.00008545026184E-07,-65.7291793823242
7.05008606062086E-07,-65.8874130249023
7.10008667097987E-07,-66.0386123657227
7.15008728133888E-07,-66.1759262084961
7.2000878916979E-07,-66.2925033569336
7.25008850205691E-07,-66.3814849853516
7.30008911241592E-07,-66.4552612304688
7.35008972277494E-07,-66.5298690795898
7.40009033313395E-07,-66.6039047241211
7.45009094349296E-07,-66.6759719848633
7.50009155385198E-07,-66.7446823120117
7.55009216421099E-07,-66.8086395263672
7.60009277457E-07,-66.8664398193359
7.65009338492901E-07,-66.9166946411133
7.70009399528803E-07,-66.9580001831055
7.75009460564704E-07,-66.9889602661133
7.80009521600605E-07,-67.0081939697266
7.85009582636507E-07,-67.0142822265625
7.90009643672408E-07,-67.0058517456055
7.95009704708309E-07,-66.9740829467773
8.00009765744211E-07,-66.8985214233398
8.05009826780112E-07,-66.7865524291992
8.10009887816013E-07,-66.6476135253906
8.15009948851915E-07,-66.4911499023438
8.20010009887816E-07,-66.3265991210938
8.25010070923717E-07,-66.1633911132813
8.30010131959619E-07,-66.0109786987305
8.3501019299552E-07,-65.8787994384766
8.40010254031421E-07,-65.7762832641602
8.45010315067323E-07,-65.7128753662109
8.50010376103224E-07,-65.6980133056641
8.55010437139125E-07,-65.7411422729492
8.60010498175026E-07,-65.8526458740234
8.65010559210928E-07,-66.0474624633789
8.70010620246829E-07,-66.3172454833984
8.7501068128273E-07,-66.6481170654297
8.80010742318632E-07,-67.0261840820313
8.85010803354533E-07,-67.4375610351563
8.90010864390434E-07,-67.8683547973633
8.95010925426336E-07,-68.3046875
9.00010986462237E-07,-68.732666015625
9.05011047498138E-07,-69.1384048461914
9.1001110853404E-07,-69.5080184936523
9.15011169569941E-07,-69.8276138305664
9.20011230605842E-07,-70.0833129882813
9.25011291641744E-07,-70.2612152099609
9.30011352677645E-07,-70.3731842041016
9.35011413713546E-07,-70.442741394043
9.40011474749448E-07,-70.4734954833984
9.45011535785349E-07,-70.4690780639648
9.5001159682125E-07,-70.4330902099609
9.55011657857151E-07,-70.3691558837891
9.60011718893053E-07,-70.2808990478516
9.65011779928954E-07,-70.1719284057617
9.70011840964855E-07,-70.0458679199219
9.75011902000757E-07,-69.9063262939453
9.80011963036658E-07,-69.7569274902344
9.85012024072559E-07,-69.6012954711914
9.90012085108461E-07,-69.4430313110352
9.95012146144362E-07,-69.2741546630859
1.00001220718026E-06,-69.0627517700195
1.00501226821616E-06,-68.8142242431641
1.01001232925207E-06,-68.5369262695313
1.01501239028797E-06,-68.2392349243164
1.02001245132387E-06,-67.9295272827148
1.02501251235977E-06,-67.6161804199219
1.03001257339567E-06,-67.3075637817383
1.03501263443157E-06,-67.0120391845703
1.04001269546747E-06,-66.7379989624023
1.04501275650338E-06,-66.4938049316406
1.05001281753928E-06,-66.287841796875
1.05501287857518E-06,-66.1284637451172
1.06001293961108E-06,-66.0234146118164
1.06501300064698E-06,-65.9683532714844
1.07001306168288E-06,-65.9556655883789
1.07501312271878E-06,-65.9792251586914
1.08001318375468E-06,-66.0329132080078
1.08501324479059E-06,-66.1106262207031
1.09001330582649E-06,-66.2062301635742
1.09501336686239E-06,-66.3136215209961
1.10001342789829E-06,-66.4266815185547
1.10501348893419E-06,-66.5392837524414
1.11001354997009E-06,-66.6453247070313
1.11501361100599E-06,-66.7386779785156
1.1200136720419E-06,-66.813232421875
1.1250137330778E-06,-66.8628692626953
1.1300137941137E-06,-66.8978500366211
1.1350138551496E-06,-66.9319381713867
1.1400139161855E-06,-66.9642791748047
1.1450139772214E-06,-66.9940032958984
1.1500140382573E-06,-67.020263671875
1.1550140992932E-06,-67.0422058105469
1.16001416032911E-06,-67.058952331543
1.16501422136501E-06,-67.0696640014648
1.17001428240091E-06,-67.0734710693359
1.17501434343681E-06,-67.0695190429688
1.18001440447271E-06,-67.0569458007813
1.18501446550861E-06,-67.0349044799805
1.19001452654451E-06,-67.0025177001953
1.19501458758041E-06,-66.9502944946289
1.20001464861632E-06,-66.8543853759766
1.20501470965222E-06,-66.7225723266602
1.21001477068812E-06,-66.5650329589844
1.21501483172402E-06,-66.3919219970703
1.22001489275992E-06,-66.2134094238281
1.22501495379582E-06,-66.0396499633789
1.23001501483172E-06,-65.8808135986328
1.23501507586763E-06,-65.7470550537109
1.24001513690353E-06,-65.6485443115234
1.24501519793943E-06,-65.5954437255859
1.25001525897533E-06,-65.5979080200195
1.25501532001123E-06,-65.6661071777344
1.26001538104713E-06,-65.8120880126953
1.26501544208303E-06,-66.0619277954102
1.27001550311893E-06,-66.4067687988281
1.27501556415484E-06,-66.8281478881836
1.28001562519074E-06,-67.3075561523438
1.28501568622664E-06,-67.826530456543
1.29001574726254E-06,-68.3665771484375
1.29501580829844E-06,-68.9092102050781
1.30001586933434E-06,-69.4359512329102
1.30501593037024E-06,-69.9283142089844
1.31001599140614E-06,-70.3678131103516
1.31501605244205E-06,-70.735969543457
1.32001611347795E-06,-71.014289855957
1.32501617451385E-06,-71.1842956542969
1.33001623554975E-06,-71.2539138793945
1.33501629658565E-06,-71.249137878418
1.34001635762155E-06,-71.1786117553711
1.34501641865745E-06,-71.0509719848633
1.35001647969336E-06,-70.8748397827148
1.35501654072926E-06,-70.6588592529297
1.36001660176516E-06,-70.4116592407227
1.36501666280106E-06,-70.1418838500977
1.37001672383696E-06,-69.858154296875
1.37501678487286E-06,-69.5691223144531
1.38001684590876E-06,-69.2834014892578
1.38501690694466E-06,-69.009651184082
1.39001696798057E-06,-68.7564849853516
1.39501702901647E-06,-68.5190277099609
1.40001709005237E-06,-68.2602386474609
1.40501715108827E-06,-67.9816741943359
1.41001721212417E-06,-67.6881866455078
1.41501727316007E-06,-67.384651184082
1.42001733419597E-06,-67.075927734375
1.42501739523188E-06,-66.7668685913086
1.43001745626778E-06,-66.4623489379883
1.43501751730368E-06,-66.1672286987305
1.44001757833958E-06,-65.8863677978516
1.44501763937548E-06,-65.624626159668
1.45001770041138E-06,-65.3868713378906
1.45501776144728E-06,-65.1779708862305
1.46001782248318E-06,-65.0036697387695
1.46501788351909E-06,-64.8763580322266
1.47001794455499E-06,-64.7917938232422
1.47501800559089E-06,-64.7411804199219
1.48001806662679E-06,-64.715690612793
1.48501812766269E-06,-64.7065200805664
1.49001818869859E-06,-64.7048568725586
1.49501824973449E-06,-64.701904296875
1.5000183107704E-06,-64.6888275146484
1.5050183718063E-06,-64.6568374633789
1.5100184328422E-06,-64.5971145629883
1.5150184938781E-06,-64.500846862793
1.520018554914E-06,-64.3592300415039
1.5250186159499E-06,-64.1634521484375
1.5300186769858E-06,-63.9192428588867
1.5350187380217E-06,-63.6403350830078
1.54001879905761E-06,-63.3298873901367
1.54501886009351E-06,-62.9910545349121
1.55001892112941E-06,-62.6270027160645
1.55501898216531E-06,-62.2408905029297
1.56001904320121E-06,-61.8358764648438
1.56501910423711E-06,-61.4151268005371
1.57001916527301E-06,-60.9817962646484
1.57501922630891E-06,-60.5390510559082
1.58001928734482E-06,-60.0900497436523
1.58501934838072E-06,-59.6379508972168
1.59001940941662E-06,-59.1859130859375
1.59501947045252E-06,-58.7290191650391
1.60001953148842E-06,-58.245059967041
1.60501959252432E-06,-57.7370986938477
1.61001965356022E-06,-57.210262298584
1.61501971459613E-06,-56.6696701049805
1.62001977563203E-06,-56.1204490661621
1.62501983666793E-06,-55.5677223205566
1.63001989770383E-06,-55.0166130065918
1.63501995873973E-06,-54.472240447998
1.64002001977563E-06,-53.9397315979004
1.64502008081153E-06,-53.4242095947266
1.65002014184743E-06,-52.9307975769043
1.65502020288334E-06,-52.4646148681641
1.66002026391924E-06,-52.0290794372559
1.66502032495514E-06,-51.6060523986816
1.67002038599104E-06,-51.1906623840332
1.67502044702694E-06,-50.7846298217773
1.68002050806284E-06,-50.3896827697754
1.68502056909874E-06,-50.0075492858887
1.69002063013465E-06,-49.6399459838867
1.69502069117055E-06,-49.2886047363281
1.70002075220645E-06,-48.9552459716797
1.70502081324235E-06,-48.6415939331055
1.71002087427825E-06,-48.3493766784668
1.71502093531415E-06,-48.0803146362305
1.72002099635005E-06,-47.8361320495605
1.72502105738595E-06,-47.6185569763184
1.73002111842186E-06,-47.423698425293
1.73502117945776E-06,-47.2469940185547
1.74002124049366E-06,-47.0891761779785
1.74502130152956E-06,-46.9509696960449
1.75002136256546E-06,-46.8331108093262
1.75502142360136E-06,-46.7363166809082
1.76002148463726E-06,-46.6613273620605
1.76502154567316E-06,-46.6088600158691
1.77002160670907E-06,-46.5796508789063
1.77502166774497E-06,-46.5744247436523
1.78002172878087E-06,-46.5939102172852
1.78502178981677E-06,-46.6388397216797
1.79002185085267E-06,-46.7099342346191
1.79502191188857E-06,-46.806999206543
1.80002197292447E-06,-46.9274864196777
1.80502203396038E-06,-47.0713653564453
1.81002209499628E-06,-47.2388153076172
1.81502215603218E-06,-47.4300270080566
1.82002221706808E-06,-47.6451835632324
1.82502227810398E-06,-47.8844680786133
1.83002233913988E-06,-48.148063659668
1.83502240017578E-06,-48.4361610412598
1.84002246121168E-06,-48.7489433288574
1.84502252224759E-06,-49.086597442627
1.85002258328349E-06,-49.4493026733398
1.85502264431939E-06,-49.8372497558594
1.86002270535529E-06,-50.2523498535156
1.86502276639119E-06,-50.7150650024414
1.87002282742709E-06,-51.2254905700684
1.87502288846299E-06,-51.776237487793
1.8800229494989E-06,-52.359920501709
1.8850230105348E-06,-52.9691467285156
1.8900230715707E-06,-53.5965347290039
1.8950231326066E-06,-54.234691619873
1.9000231936425E-06,-54.8762321472168
1.9050232546784E-06,-55.5137634277344
1.9100233157143E-06,-56.1399040222168
1.9150233767502E-06,-56.747257232666
1.92002343778611E-06,-57.328441619873
1.92502349882201E-06,-57.8760681152344
1.93002355985791E-06,-58.4120407104492
1.93502362089381E-06,-58.9594230651855
1.94002368192971E-06,-59.5125465393066
1.94502374296561E-06,-60.0657424926758
1.95002380400151E-06,-60.6133460998535
1.95502386503741E-06,-61.1496925354004
1.96002392607332E-06,-61.6691093444824
1.96502398710922E-06,-62.1659393310547
1.97002404814512E-06,-62.6345062255859
1.97502410918102E-06,-63.0691528320313
1.98002417021692E-06,-63.4642028808594
1.98502423125282E-06,-63.8139991760254
1.99002429228872E-06,-64.1128692626953
1.99502435332463E-06,-64.3493118286133
2.00002441436053E-06,-64.5071029663086
2.00502447539643E-06,-64.596923828125
2.01002453643233E-06,-64.6312637329102
2.01502459746823E-06,-64.6225967407227
2.02002465850413E-06,-64.5834121704102
2.02502471954003E-06,-64.5261840820313
2.03002478057593E-06,-64.4634017944336
2.03502484161184E-06,-64.4075393676758
2.04002490264774E-06,-64.3710861206055
2.04502496368364E-06,-64.3665161132813
2.05002502471954E-06,-64.4063110351563
2.05502508575544E-06,-64.5029678344727
2.06002514679134E-06,-64.6678314208984
2.06502520782724E-06,-64.8926696777344
2.07002526886315E-06,-65.1660842895508
2.07502532989905E-06,-65.4795913696289
2.08002539093495E-06,-65.82470703125
2.08502545197085E-06,-66.1929397583008
2.09002551300675E-06,-66.575813293457
2.09502557404265E-06,-66.96484375
2.10002563507855E-06,-67.3515319824219
2.10502569611445E-06,-67.727409362793
2.11002575715036E-06,-68.0839767456055
2.11502581818626E-06,-68.4127655029297
2.12002587922216E-06,-68.7052764892578
2.12502594025806E-06,-68.9530334472656
2.13002600129396E-06,-69.1722946166992
2.13502606232986E-06,-69.3835296630859
2.14002612336576E-06,-69.5845642089844
2.14502618440166E-06,-69.7732086181641
2.15002624543757E-06,-69.9472961425781
2.15502630647347E-06,-70.1046447753906
2.16002636750937E-06,-70.2430648803711
2.16502642854527E-06,-70.3603897094727
2.17002648958117E-06,-70.4544296264648
2.17502655061707E-06,-70.5230102539063
2.18002661165297E-06,-70.5639495849609
2.18502667268888E-06,-70.5750732421875
2.19002673372478E-06,-70.55419921875
2.19502679476068E-06,-70.4870529174805
2.20002685579658E-06,-70.340202331543
2.20502691683248E-06,-70.1256256103516
2.21002697786838E-06,-69.8586120605469
2.21502703890428E-06,-69.5544815063477
2.22002709994018E-06,-69.2285308837891
2.22502716097609E-06,-68.8960723876953
2.23002722201199E-06,-68.5724105834961
2.23502728304789E-06,-68.2728500366211
2.24002734408379E-06,-68.0127029418945
2.24502740511969E-06,-67.8072738647461
2.25002746615559E-06,-67.6718673706055
2.25502752719149E-06,-67.6217956542969
2.2600275882274E-06,-67.6726608276367
2.2650276492633E-06,-67.8340682983398
2.2700277102992E-06,-68.0922927856445
2.2750277713351E-06,-68.4299850463867
2.280027832371E-06,-68.8297729492188
2.2850278934069E-06,-69.2743072509766
2.2900279544428E-06,-69.746223449707
2.2950280154787E-06,-70.228157043457
2.30002807651461E-06,-70.7027435302734
2.30502813755051E-06,-71.1526412963867
2.31002819858641E-06,-71.5604705810547
2.31502825962231E-06,-71.9088821411133
2.32002832065821E-06,-72.1805038452148
2.32502838169411E-06,-72.3579940795898
2.33002844273001E-06,-72.4552307128906
2.33502850376592E-06,-72.5010070800781
2.34002856480182E-06,-72.5002975463867
2.34502862583772E-06,-72.4580612182617
2.35002868687362E-06,-72.379280090332
2.35502874790952E-06,-72.2689056396484
2.36002880894542E-06,-72.1319122314453
2.36502886998132E-06,-71.973274230957
2.37002893101722E-06,-71.797966003418
2.37502899205313E-06,-71.6109390258789
2.38002905308903E-06,-71.4171752929688
2.38502911412493E-06,-71.2216415405273
2.39002917516083E-06,-71.029296875
2.39502923619673E-06,-70.8298950195313
2.40002929723263E-06,-70.5815582275391
2.40502935826853E-06,-70.2911148071289
2.41002941930443E-06,-69.9693145751953
2.41502948034034E-06,-69.6268920898438
2.42002954137624E-06,-69.2745971679688
2.42502960241214E-06,-68.9231719970703
2.43002966344804E-06,-68.5833587646484
2.43502972448394E-06,-68.2659072875977
2.44002978551984E-06,-67.9815444946289
2.44502984655574E-06,-67.7410278320313
2.45002990759165E-06,-67.5550994873047
2.45502996862755E-06,-67.4345016479492
2.46003002966345E-06,-67.3897857666016
2.46503009069935E-06,-67.4229278564453
2.47003015173525E-06,-67.5242538452148
