Trace
Swept SA
A.19.55,N9020B
508 AB2 B25 B40 B85 DP2 DP4 EP2 FS1 FS2 MPB RTL ,01
Segment,0
Number of Points,81920
Sweep Time,0.0004096
Start Frequency,2400000000
Stop Frequency,2400000000
Average Count,0
Average Type,LogPower(Video)
RBW,3000000
RBW Filter,Gaussian
RBW Filter BW,3dB
VBW,3000000
Sweep Type,Swept
X Axis Scale,Lin
PreAmp State,Off
PreAmp Band,Low
Trigger Source,Ext1
Trigger Level,1.2
Trigger Slope,Positive
Trigger Delay,1E-06
Phase Noise Optimization,Fast
Swept If Gain,Low
FFT If Gain,Autorange
RF Coupling,AC
FFT Width,411900
Ext Ref,10000000
Input,RF
RF Calibrator,Off
Attenuation,6
Ref Level Offset,0
External Gain,0
Trace Type,Clearwrite
Detector,Normal
Trace Math,Off
Trace Math Oper1,Trace5
Trace Math Oper2,Trace6
Trace Math Offset,0
Normalize,Off
Trace Name,Trace1
X Axis Units,s
Y Axis Units,dBm
DATA
0,-52.6466102600098
5.00006103590132E-09,-53.4508285522461
1.00001220718026E-08,-54.3265266418457
1.50001831077039E-08,-55.250789642334
2.00002441436053E-08,-56.2006874084473
2.50003051795066E-08,-57.1533012390137
3.00003662154079E-08,-58.0857086181641
3.50004272513092E-08,-58.9749870300293
4.00004882872105E-08,-59.7982139587402
4.50005493231118E-08,-60.5324630737305
5.00006103590132E-08,-61.1548156738281
5.50006713949145E-08,-61.6423492431641
6.00007324308158E-08,-61.9739189147949
6.50007934667171E-08,-62.1615257263184
7.00008545026184E-08,-62.2260551452637
7.50009155385197E-08,-62.1842002868652
8.00009765744211E-08,-62.0526542663574
8.50010376103224E-08,-61.8481063842773
9.00010986462237E-08,-61.5872497558594
9.5001159682125E-08,-61.2867736816406
1.00001220718026E-07,-60.9633712768555
1.05001281753928E-07,-60.6337356567383
1.10001342789829E-07,-60.3145561218262
1.1500140382573E-07,-60.0225257873535
1.20001464861632E-07,-59.7743339538574
1.25001525897533E-07,-59.5866775512695
1.30001586933434E-07,-59.421459197998
1.35001647969336E-07,-59.234302520752
1.40001709005237E-07,-59.0324516296387
1.45001770041138E-07,-58.8231658935547
1.50001831077039E-07,-58.6136932373047
1.55001892112941E-07,-58.4112930297852
1.60001953148842E-07,-58.2232093811035
1.65002014184743E-07,-58.056697845459
1.70002075220645E-07,-57.9190139770508
1.75002136256546E-07,-57.8174018859863
1.80002197292447E-07,-57.7591247558594
1.85002258328349E-07,-57.7514266967773
1.9000231936425E-07,-57.8015670776367
1.95002380400151E-07,-57.920166015625
2.00002441436053E-07,-58.1167182922363
2.05002502471954E-07,-58.3808059692383
2.10002563507855E-07,-58.7008094787598
2.15002624543757E-07,-59.0651168823242
2.20002685579658E-07,-59.4621162414551
2.25002746615559E-07,-59.8801918029785
2.30002807651461E-07,-60.307731628418
2.35002868687362E-07,-60.7331199645996
2.40002929723263E-07,-61.1447410583496
2.45002990759165E-07,-61.5309829711914
2.50003051795066E-07,-61.8802337646484
2.55003112830967E-07,-62.1808776855469
2.60003173866868E-07,-62.4245986938477
2.6500323490277E-07,-62.6456527709961
2.70003295938671E-07,-62.8549880981445
2.75003356974572E-07,-63.0511207580566
2.80003418010474E-07,-63.2325630187988
2.85003479046375E-07,-63.3978233337402
2.90003540082276E-07,-63.5454139709473
2.95003601118178E-07,-63.6738471984863
3.00003662154079E-07,-63.7816390991211
3.0500372318998E-07,-63.8672943115234
3.10003784225882E-07,-63.9293251037598
3.15003845261783E-07,-63.966251373291
3.20003906297684E-07,-63.9765739440918
3.25003967333586E-07,-63.958812713623
3.30004028369487E-07,-63.8850402832031
3.35004089405388E-07,-63.7380409240723
3.4000415044129E-07,-63.5324096679688
3.45004211477191E-07,-63.2827453613281
3.50004272513092E-07,-63.0036315917969
3.55004333548993E-07,-62.7096672058105
3.60004394584895E-07,-62.4154396057129
3.65004455620796E-07,-62.1355438232422
3.70004516656697E-07,-61.8845710754395
3.75004577692599E-07,-61.6771125793457
3.800046387285E-07,-61.5277633666992
3.85004699764401E-07,-61.4511108398438
3.90004760800303E-07,-61.4617538452148
3.95004821836204E-07,-61.5760650634766
4.00004882872105E-07,-61.7993240356445
4.05004943908007E-07,-62.114559173584
4.10005004943908E-07,-62.5037384033203
4.15005065979809E-07,-62.9488296508789
4.20005127015711E-07,-63.431812286377
4.25005188051612E-07,-63.9346542358398
4.30005249087513E-07,-64.439323425293
4.35005310123415E-07,-64.9278030395508
4.40005371159316E-07,-65.3820495605469
4.45005432195217E-07,-65.784049987793
4.50005493231119E-07,-66.1157684326172
4.5500555426702E-07,-66.3591690063477
4.60005615302921E-07,-66.4988174438477
4.65005676338822E-07,-66.5579223632813
4.70005737374724E-07,-66.553108215332
4.75005798410625E-07,-66.4926376342773
4.80005859446526E-07,-66.3847503662109
4.85005920482428E-07,-66.2377166748047
4.90005981518329E-07,-66.0597915649414
4.9500604255423E-07,-65.8592376708984
5.00006103590132E-07,-65.6443023681641
5.05006164626033E-07,-65.4232559204102
5.10006225661934E-07,-65.204345703125
5.15006286697836E-07,-64.9958343505859
5.20006347733737E-07,-64.8059768676758
5.25006408769638E-07,-64.6430435180664
5.3000646980554E-07,-64.4681777954102
5.35006530841441E-07,-64.2459182739258
5.40006591877342E-07,-63.9895820617676
5.45006652913243E-07,-63.7124824523926
5.50006713949145E-07,-63.4279365539551
5.55006774985046E-07,-63.1492614746094
5.60006836020948E-07,-62.8897666931152
5.65006897056849E-07,-62.662769317627
5.7000695809275E-07,-62.4815864562988
5.75007019128651E-07,-62.3595275878906
5.80007080164553E-07,-62.3099174499512
5.85007141200454E-07,-62.3460655212402
5.90007202236355E-07,-62.4812850952148
5.95007263272257E-07,-62.7437934875488
6.00007324308158E-07,-63.1750068664551
6.05007385344059E-07,-63.7488594055176
6.10007446379961E-07,-64.4347534179688
6.15007507415862E-07,-65.2020950317383
6.20007568451763E-07,-66.0202941894531
6.25007629487665E-07,-66.8587341308594
6.30007690523566E-07,-67.6868362426758
6.35007751559467E-07,-68.473991394043
6.40007812595369E-07,-69.1896057128906
6.4500787363127E-07,-69.8030853271484
6.50007934667171E-07,-70.2838287353516
6.55007995703072E-07,-70.6012420654297
6.60008056738974E-07,-70.7274169921875
6.65008117774875E-07,-70.6819839477539
6.70008178810776E-07,-70.4928894042969
6.75008239846678E-07,-70.1811218261719
6.80008300882579E-07,-69.767692565918
6.8500836191848E-07,-69.2735824584961
6.90008422954382E-07,-68.7197952270508
6.95008483990283E-07,-68.1273422241211
7.00008545026184E-07,-67.517204284668
7.05008606062086E-07,-66.9103851318359
7.10008667097987E-07,-66.327880859375
7.15008728133888E-07,-65.7907028198242
7.2000878916979E-07,-65.3198318481445
7.25008850205691E-07,-64.936279296875
7.30008911241592E-07,-64.6073303222656
7.35008972277494E-07,-64.2874374389648
7.40009033313395E-07,-63.9783172607422
7.45009094349296E-07,-63.681697845459
7.50009155385198E-07,-63.3992958068848
7.55009216421099E-07,-63.1328353881836
7.60009277457E-07,-62.8840408325195
7.65009338492901E-07,-62.6546363830566
7.70009399528803E-07,-62.4463424682617
7.75009460564704E-07,-62.2608795166016
7.80009521600605E-07,-62.0999755859375
7.85009582636507E-07,-61.9653511047363
7.90009643672408E-07,-61.8587265014648
7.95009704708309E-07,-61.7867622375488
8.00009765744211E-07,-61.763111114502
8.05009826780112E-07,-61.7820091247559
8.10009887816013E-07,-61.8362884521484
8.15009948851915E-07,-61.9187812805176
8.20010009887816E-07,-62.0223274230957
8.25010070923717E-07,-62.1397552490234
8.30010131959619E-07,-62.2639007568359
8.3501019299552E-07,-62.3875961303711
8.40010254031421E-07,-62.5036811828613
8.45010315067323E-07,-62.6049842834473
8.50010376103224E-07,-62.6843414306641
8.55010437139125E-07,-62.7345886230469
8.60010498175026E-07,-62.7498359680176
8.65010559210928E-07,-62.7423400878906
8.70010620246829E-07,-62.7187423706055
8.7501068128273E-07,-62.6812591552734
8.80010742318632E-07,-62.6321067810059
8.85010803354533E-07,-62.5735015869141
8.90010864390434E-07,-62.5076599121094
8.95010925426336E-07,-62.4367980957031
9.00010986462237E-07,-62.3631324768066
9.05011047498138E-07,-62.2888793945313
9.1001110853404E-07,-62.2162590026855
9.15011169569941E-07,-62.1474838256836
9.20011230605842E-07,-62.084774017334
9.25011291641744E-07,-62.0303421020508
9.30011352677645E-07,-61.9378814697266
9.35011413713546E-07,-61.7736320495605
9.40011474749448E-07,-61.5586204528809
9.45011535785349E-07,-61.3138771057129
9.5001159682125E-07,-61.060432434082
9.55011657857151E-07,-60.8193168640137
9.60011718893053E-07,-60.6115570068359
9.65011779928954E-07,-60.4581871032715
9.70011840964855E-07,-60.3802337646484
9.75011902000757E-07,-60.3987312316895
9.80011963036658E-07,-60.5347023010254
9.85012024072559E-07,-60.8091812133789
9.90012085108461E-07,-61.2431983947754
9.95012146144362E-07,-61.8899536132813
1.00001220718026E-06,-62.8386611938477
1.00501226821616E-06,-64.0412826538086
1.01001232925207E-06,-65.440299987793
1.01501239028797E-06,-66.9781723022461
1.02001245132387E-06,-68.5973663330078
1.02501251235977E-06,-70.240364074707
1.03001257339567E-06,-71.8496170043945
1.03501263443157E-06,-73.3676071166992
1.04001269546747E-06,-74.7368011474609
1.04501275650338E-06,-75.8996658325195
1.05001281753928E-06,-76.7986755371094
1.05501287857518E-06,-77.3762893676758
1.06001293961108E-06,-77.5783233642578
1.06501300064698E-06,-77.4215774536133
1.07001306168288E-06,-76.9582901000977
1.07501312271878E-06,-76.2350692749023
1.08001318375468E-06,-75.2984924316406
1.08501324479059E-06,-74.1951599121094
1.09001330582649E-06,-72.9716567993164
1.09501336686239E-06,-71.6745758056641
1.10001342789829E-06,-70.3505096435547
1.10501348893419E-06,-69.0460586547852
1.11001354997009E-06,-67.8078002929688
1.11501361100599E-06,-66.6823272705078
1.1200136720419E-06,-65.7162399291992
1.1250137330778E-06,-64.9561233520508
1.1300137941137E-06,-64.3430786132813
1.1350138551496E-06,-63.7852630615234
1.1400139161855E-06,-63.2798461914063
1.1450139772214E-06,-62.8240051269531
1.1500140382573E-06,-62.414909362793
1.1550140992932E-06,-62.0497360229492
1.16001416032911E-06,-61.7256546020508
1.16501422136501E-06,-61.4398384094238
1.17001428240091E-06,-61.1894645690918
1.17501434343681E-06,-60.9717063903809
1.18001440447271E-06,-60.7837295532227
1.18501446550861E-06,-60.6227149963379
1.19001452654451E-06,-60.4858360290527
1.19501458758041E-06,-60.3810920715332
1.20001464861632E-06,-60.3382797241211
1.20501470965222E-06,-60.3517799377441
1.21001477068812E-06,-60.4131813049316
1.21501483172402E-06,-60.5140609741211
1.22001489275992E-06,-60.6459922790527
1.22501495379582E-06,-60.8005638122559
1.23001501483172E-06,-60.9693450927734
1.23501507586763E-06,-61.1439247131348
1.24001513690353E-06,-61.3158760070801
1.24501519793943E-06,-61.4767799377441
1.25001525897533E-06,-61.6182174682617
1.25501532001123E-06,-61.7317657470703
1.26001538104713E-06,-61.8110313415527
1.26501544208303E-06,-61.8765983581543
1.27001550311893E-06,-61.9363441467285
1.27501556415484E-06,-61.9906997680664
1.28001562519074E-06,-62.0400848388672
1.28501568622664E-06,-62.0849266052246
1.29001574726254E-06,-62.1256446838379
1.29501580829844E-06,-62.162670135498
1.30001586933434E-06,-62.196418762207
1.30501593037024E-06,-62.2273216247559
1.31001599140614E-06,-62.2557983398438
1.31501605244205E-06,-62.2822761535645
1.32001611347795E-06,-62.3071784973145
1.32501617451385E-06,-62.3309288024902
1.33001623554975E-06,-62.3052444458008
1.33501629658565E-06,-62.197021484375
1.34001635762155E-06,-62.0294647216797
1.34501641865745E-06,-61.8257789611816
1.35001647969336E-06,-61.6091690063477
1.35501654072926E-06,-61.4028358459473
1.36001660176516E-06,-61.2299880981445
1.36501666280106E-06,-61.1138229370117
1.37001672383696E-06,-61.0775451660156
1.37501678487286E-06,-61.1443634033203
1.38001684590876E-06,-61.3374786376953
1.38501690694466E-06,-61.6800918579102
1.39001696798057E-06,-62.1954078674316
1.39501702901647E-06,-62.9427146911621
1.40001709005237E-06,-64.0220642089844
1.40501715108827E-06,-65.379997253418
1.41001721212417E-06,-66.9524078369141
1.41501727316007E-06,-68.6751861572266
1.42001733419597E-06,-70.4842376708984
1.42501739523188E-06,-72.3154525756836
1.43001745626778E-06,-74.104736328125
1.43501751730368E-06,-75.787971496582
1.44001757833958E-06,-77.3010635375977
1.44501763937548E-06,-78.5799102783203
1.45001770041138E-06,-79.5604095458984
1.45501776144728E-06,-80.1784439086914
1.46001782248318E-06,-80.3732070922852
1.46501788351909E-06,-80.1581039428711
1.47001794455499E-06,-79.5913009643555
1.47501800559089E-06,-78.7265701293945
1.48001806662679E-06,-77.6176986694336
1.48501812766269E-06,-76.3184585571289
1.49001818869859E-06,-74.8826370239258
1.49501824973449E-06,-73.3640060424805
1.5000183107704E-06,-71.8163528442383
1.5050183718063E-06,-70.2934494018555
1.5100184328422E-06,-68.8490753173828
1.5150184938781E-06,-67.5370178222656
1.520018554914E-06,-66.4110565185547
1.5250186159499E-06,-65.5249633789063
1.5300186769858E-06,-64.818733215332
1.5350187380217E-06,-64.1917343139648
1.54001879905761E-06,-63.6368255615234
1.54501886009351E-06,-63.1468658447266
1.55001892112941E-06,-62.714714050293
1.55501898216531E-06,-62.3332214355469
1.56001904320121E-06,-61.9952507019043
1.56501910423711E-06,-61.6936569213867
1.57001916527301E-06,-61.4212989807129
1.57501922630891E-06,-61.1710319519043
1.58001928734482E-06,-60.935718536377
1.58501934838072E-06,-60.7082099914551
1.59001940941662E-06,-60.4813613891602
1.59501947045252E-06,-60.264762878418
1.60001953148842E-06,-60.1043243408203
1.60501959252432E-06,-59.9943504333496
1.61001965356022E-06,-59.9249114990234
1.61501971459613E-06,-59.8860816955566
1.62001977563203E-06,-59.8679313659668
1.62501983666793E-06,-59.8605308532715
1.63001989770383E-06,-59.8539581298828
1.63501995873973E-06,-59.8382759094238
1.64002001977563E-06,-59.8035583496094
1.64502008081153E-06,-59.7398796081543
1.65002014184743E-06,-59.6373100280762
1.65502020288334E-06,-59.4859199523926
1.66002026391924E-06,-59.2774353027344
1.66502032495514E-06,-59.0274429321289
1.67002038599104E-06,-58.7451210021973
1.67502044702694E-06,-58.4340400695801
1.68002050806284E-06,-58.0977554321289
1.68502056909874E-06,-57.7398338317871
1.69002063013465E-06,-57.363842010498
1.69502069117055E-06,-56.9733390808105
1.70002075220645E-06,-56.5718879699707
1.70502081324235E-06,-56.1630554199219
1.71002087427825E-06,-55.7504043579102
1.71502093531415E-06,-55.3374977111816
1.72002099635005E-06,-54.9278984069824
1.72502105738595E-06,-54.5251693725586
1.73002111842186E-06,-54.1152496337891
1.73502117945776E-06,-53.6846618652344
1.74002124049366E-06,-53.2378387451172
1.74502130152956E-06,-52.7792091369629
1.75002136256546E-06,-52.3132057189941
1.75502142360136E-06,-51.8442611694336
1.76002148463726E-06,-51.3768081665039
1.76502154567316E-06,-50.9152793884277
1.77002160670907E-06,-50.4641036987305
1.77502166774497E-06,-50.0277214050293
1.78002172878087E-06,-49.6105537414551
1.78502178981677E-06,-49.217041015625
1.79002185085267E-06,-48.8516120910645
1.79502191188857E-06,-48.5125541687012
1.80002197292447E-06,-48.183048248291
1.80502203396038E-06,-47.8632583618164
1.81002209499628E-06,-47.5548286437988
1.81502215603218E-06,-47.2594146728516
1.82002221706808E-06,-46.9786605834961
1.82502227810398E-06,-46.7142181396484
1.83002233913988E-06,-46.4677352905273
1.83502240017578E-06,-46.2408638000488
1.84002246121168E-06,-46.0352478027344
1.84502252224759E-06,-45.8525428771973
1.85002258328349E-06,-45.694393157959
1.85502264431939E-06,-45.5624504089355
1.86002270535529E-06,-45.4576187133789
1.86502276639119E-06,-45.3717956542969
1.87002282742709E-06,-45.3033828735352
1.87502288846299E-06,-45.2537384033203
1.8800229494989E-06,-45.2242126464844
1.8850230105348E-06,-45.2161636352539
1.8900230715707E-06,-45.2309417724609
1.8950231326066E-06,-45.269905090332
1.9000231936425E-06,-45.3344039916992
1.9050232546784E-06,-45.4257965087891
1.9100233157143E-06,-45.5454330444336
1.9150233767502E-06,-45.6946678161621
1.92002343778611E-06,-45.8748626708984
1.92502349882201E-06,-46.0873641967773
1.93002355985791E-06,-46.3246040344238
1.93502362089381E-06,-46.5799522399902
1.94002368192971E-06,-46.8561782836914
1.94502374296561E-06,-47.1560516357422
1.95002380400151E-06,-47.4823341369629
1.95502386503741E-06,-47.8378028869629
1.96002392607332E-06,-48.2252235412598
1.96502398710922E-06,-48.6473579406738
1.97002404814512E-06,-49.1069831848145
1.97502410918102E-06,-49.606861114502
1.98002417021692E-06,-50.1497611999512
1.98502423125282E-06,-50.7384490966797
1.99002429228872E-06,-51.3757019042969
1.99502435332463E-06,-52.0768775939941
2.00002441436053E-06,-52.8767738342285
2.00502447539643E-06,-53.7624092102051
2.01002453643233E-06,-54.7173042297363
2.01502459746823E-06,-55.724967956543
2.02002465850413E-06,-56.768913269043
2.02502471954003E-06,-57.8326606750488
2.03002478057593E-06,-58.899715423584
2.03502484161184E-06,-59.9535942077637
2.04002490264774E-06,-60.9778175354004
2.04502496368364E-06,-61.9558906555176
2.05002502471954E-06,-62.8713302612305
2.05502508575544E-06,-63.707649230957
2.06002514679134E-06,-64.4531402587891
2.06502520782724E-06,-65.1575317382813
2.07002526886315E-06,-65.8363800048828
2.07502532989905E-06,-66.487190246582
2.08002539093495E-06,-67.1074523925781
2.08502545197085E-06,-67.6946716308594
2.09002551300675E-06,-68.2463455200195
2.09502557404265E-06,-68.7599639892578
2.10002563507855E-06,-69.233024597168
2.10502569611445E-06,-69.6630401611328
2.11002575715036E-06,-70.047492980957
2.11502581818626E-06,-70.3838882446289
2.12002587922216E-06,-70.6697235107422
2.12502594025806E-06,-70.9024963378906
2.13002600129396E-06,-71.0649871826172
2.13502606232986E-06,-71.1483764648438
2.14002612336576E-06,-71.162712097168
2.14502618440166E-06,-71.1180725097656
2.15002624543757E-06,-71.0245056152344
2.15502630647347E-06,-70.89208984375
2.16002636750937E-06,-70.7308883666992
2.16502642854527E-06,-70.5509567260742
2.17002648958117E-06,-70.3623733520508
2.17502655061707E-06,-70.1751861572266
2.18002661165297E-06,-69.9994659423828
2.18502667268888E-06,-69.8452758789063
2.19002673372478E-06,-69.7226867675781
2.19502679476068E-06,-69.6381607055664
2.20002685579658E-06,-69.5820465087891
2.20502691683248E-06,-69.5464630126953
2.21002697786838E-06,-69.5241394042969
2.21502703890428E-06,-69.5077590942383
2.22002709994018E-06,-69.4900512695313
2.22502716097609E-06,-69.4637222290039
2.23002722201199E-06,-69.4214630126953
2.23502728304789E-06,-69.3560028076172
2.24002734408379E-06,-69.2600402832031
2.24502740511969E-06,-69.1262817382813
2.25002746615559E-06,-68.9474411010742
2.25502752719149E-06,-68.7162246704102
2.2600275882274E-06,-68.4237289428711
2.2650276492633E-06,-68.0481109619141
2.2700277102992E-06,-67.5956802368164
2.2750277713351E-06,-67.0808029174805
2.280027832371E-06,-66.5178375244141
2.2850278934069E-06,-65.9211578369141
2.2900279544428E-06,-65.3051300048828
2.2950280154787E-06,-64.6841049194336
2.30002807651461E-06,-64.0724716186523
2.30502813755051E-06,-63.4845733642578
2.31002819858641E-06,-62.9347839355469
2.31502825962231E-06,-62.4374694824219
2.32002832065821E-06,-62.0069961547852
2.32502838169411E-06,-61.6577262878418
2.33002844273001E-06,-61.357608795166
2.33502850376592E-06,-61.0689353942871
2.34002856480182E-06,-60.7975921630859
2.34502862583772E-06,-60.5494689941406
2.35002868687362E-06,-60.3304557800293
2.35502874790952E-06,-60.1464347839355
2.36002880894542E-06,-60.0032997131348
2.36502886998132E-06,-59.9069328308105
2.37002893101722E-06,-59.8632278442383
2.37502899205313E-06,-59.8780670166016
2.38002905308903E-06,-59.9573440551758
2.38502911412493E-06,-60.1069412231445
2.39002917516083E-06,-60.3327522277832
2.39502923619673E-06,-60.6630477905273
2.40002929723263E-06,-61.1596870422363
2.40502935826853E-06,-61.7985763549805
2.41002941930443E-06,-62.5493469238281
2.41502948034034E-06,-63.3816261291504
2.42002954137624E-06,-64.2650527954102
2.42502960241214E-06,-65.1692581176758
2.43002966344804E-06,-66.0638656616211
2.43502972448394E-06,-66.9185180664063
2.44002978551984E-06,-67.7028427124023
2.44502984655574E-06,-68.386474609375
2.45002990759165E-06,-68.9390487670898
2.45502996862755E-06,-69.330192565918
2.46003002966345E-06,-69.5324325561523
2.46503009069935E-06,-69.5679244995117
