Trace
Swept SA
A.19.55,N9020B
508 AB2 B25 B40 B85 DP2 DP4 EP2 FS1 FS2 MPB RTL ,01
Segment,0
Number of Points,81920
Sweep Time,0.0004096
Start Frequency,2400000000
Stop Frequency,2400000000
Average Count,0
Average Type,LogPower(Video)
RBW,3000000
RBW Filter,Gaussian
RBW Filter BW,3dB
VBW,3000000
Sweep Type,Swept
X Axis Scale,Lin
PreAmp State,Off
PreAmp Band,Low
Trigger Source,Ext1
Trigger Level,1.2
Trigger Slope,Positive
Trigger Delay,1E-06
Phase Noise Optimization,Fast
Swept If Gain,Low
FFT If Gain,Autorange
RF Coupling,AC
FFT Width,411900
Ext Ref,10000000
Input,RF
RF Calibrator,Off
Attenuation,6
Ref Level Offset,0
External Gain,0
Trace Type,Clearwrite
Detector,Normal
Trace Math,Off
Trace Math Oper1,Trace5
Trace Math Oper2,Trace6
Trace Math Offset,0
Normalize,Off
Trace Name,Trace1
X Axis Units,s
Y Axis Units,dBm
DATA
0,-87.7515182495117
5.00006103590132E-09,-87.7514877319336
1.00001220718026E-08,-87.7164154052734
1.50001831077039E-08,-87.6522598266602
2.00002441436053E-08,-87.5650024414063
2.50003051795066E-08,-87.4606094360352
3.00003662154079E-08,-87.3450546264648
3.50004272513092E-08,-87.2242965698242
4.00004882872105E-08,-87.1043167114258
4.50005493231118E-08,-86.9910736083984
5.00006103590132E-08,-86.8905487060547
5.50006713949145E-08,-86.808708190918
6.00007324308158E-08,-86.7508316040039
6.50007934667171E-08,-86.7111587524414
7.00008545026184E-08,-86.6842269897461
7.50009155385197E-08,-86.6666107177734
8.00009765744211E-08,-86.6548919677734
8.50010376103224E-08,-86.6456527709961
9.00010986462237E-08,-86.6354751586914
9.5001159682125E-08,-86.6209411621094
1.00001220718026E-07,-86.5986251831055
1.05001281753928E-07,-86.5651245117188
1.10001342789829E-07,-86.5170135498047
1.1500140382573E-07,-86.4508666992188
1.20001464861632E-07,-86.3632736206055
1.25001525897533E-07,-86.2508163452148
1.30001586933434E-07,-86.1159744262695
1.35001647969336E-07,-85.9642715454102
1.40001709005237E-07,-85.7967834472656
1.45001770041138E-07,-85.6146240234375
1.50001831077039E-07,-85.4188842773438
1.55001892112941E-07,-85.2106628417969
1.60001953148842E-07,-84.9910507202148
1.65002014184743E-07,-84.7611541748047
1.70002075220645E-07,-84.5220718383789
1.75002136256546E-07,-84.2748870849609
1.80002197292447E-07,-84.0207138061523
1.85002258328349E-07,-83.7606430053711
1.9000231936425E-07,-83.4957733154297
1.95002380400151E-07,-83.223274230957
2.00002441436053E-07,-82.9323272705078
2.05002502471954E-07,-82.6249008178711
2.10002563507855E-07,-82.3039703369141
2.15002624543757E-07,-81.9725036621094
2.20002685579658E-07,-81.6334915161133
2.25002746615559E-07,-81.2899017333984
2.30002807651461E-07,-80.944709777832
2.35002868687362E-07,-80.6008911132813
2.40002929723263E-07,-80.2614288330078
2.45002990759165E-07,-79.9292984008789
2.50003051795066E-07,-79.6074752807617
2.55003112830967E-07,-79.2989349365234
2.60003173866868E-07,-79.0055541992188
2.6500323490277E-07,-78.7155838012695
2.70003295938671E-07,-78.4261856079102
2.75003356974572E-07,-78.1387939453125
2.80003418010474E-07,-77.8548202514648
2.85003479046375E-07,-77.5757064819336
2.90003540082276E-07,-77.3028717041016
2.95003601118178E-07,-77.0377578735352
3.00003662154079E-07,-76.7817840576172
3.0500372318998E-07,-76.536376953125
3.10003784225882E-07,-76.3029708862305
3.15003845261783E-07,-76.0829925537109
3.20003906297684E-07,-75.8778762817383
3.25003967333586E-07,-75.6890411376953
3.30004028369487E-07,-75.5132751464844
3.35004089405388E-07,-75.3468170166016
3.4000415044129E-07,-75.1902618408203
3.45004211477191E-07,-75.0442047119141
3.50004272513092E-07,-74.9092483520508
3.55004333548993E-07,-74.7859878540039
3.60004394584895E-07,-74.6750259399414
3.65004455620796E-07,-74.5769500732422
3.70004516656697E-07,-74.4923706054688
3.75004577692599E-07,-74.421875
3.800046387285E-07,-74.3660736083984
3.85004699764401E-07,-74.325553894043
3.90004760800303E-07,-74.3009185791016
3.95004821836204E-07,-74.2920913696289
4.00004882872105E-07,-74.2972412109375
4.05004943908007E-07,-74.316276550293
4.10005004943908E-07,-74.3492279052734
4.15005065979809E-07,-74.3961715698242
4.20005127015711E-07,-74.457145690918
4.25005188051612E-07,-74.5322036743164
4.30005249087513E-07,-74.6214065551758
4.35005310123415E-07,-74.7248001098633
4.40005371159316E-07,-74.8424453735352
4.45005432195217E-07,-74.9743804931641
4.50005493231119E-07,-75.1206741333008
4.5500555426702E-07,-75.2813720703125
4.60005615302921E-07,-75.4575805664063
4.65005676338822E-07,-75.6616821289063
4.70005737374724E-07,-75.8937835693359
4.75005798410625E-07,-76.1494674682617
4.80005859446526E-07,-76.4243240356445
4.85005920482428E-07,-76.7139205932617
4.90005981518329E-07,-77.0138549804688
4.9500604255423E-07,-77.3197021484375
5.00006103590132E-07,-77.6270446777344
5.05006164626033E-07,-77.9314651489258
5.10006225661934E-07,-78.2285385131836
5.15006286697836E-07,-78.5138549804688
5.20006347733737E-07,-78.7829895019531
5.25006408769638E-07,-79.0315322875977
5.3000646980554E-07,-79.2777938842773
5.35006530841441E-07,-79.5391006469727
5.40006591877342E-07,-79.8095169067383
5.45006652913243E-07,-80.083122253418
5.50006713949145E-07,-80.3539733886719
5.55006774985046E-07,-80.6161651611328
5.60006836020948E-07,-80.8637466430664
5.65006897056849E-07,-81.0908050537109
5.7000695809275E-07,-81.2914123535156
5.75007019128651E-07,-81.4596328735352
5.80007080164553E-07,-81.5895385742188
5.85007141200454E-07,-81.6752090454102
5.90007202236355E-07,-81.7107162475586
5.95007263272257E-07,-81.6858215332031
6.00007324308158E-07,-81.5885238647461
6.05007385344059E-07,-81.4285659790039
6.10007446379961E-07,-81.2170867919922
6.15007507415862E-07,-80.965217590332
6.20007568451763E-07,-80.6840972900391
6.25007629487665E-07,-80.3848724365234
6.30007690523566E-07,-80.0786666870117
6.35007751559467E-07,-79.7766189575195
6.40007812595369E-07,-79.489875793457
6.4500787363127E-07,-79.2295608520508
6.50007934667171E-07,-79.0068130493164
6.55007995703072E-07,-78.8327789306641
6.60008056738974E-07,-78.7131881713867
6.65008117774875E-07,-78.5888442993164
6.70008178810776E-07,-78.4488983154297
6.75008239846678E-07,-78.304084777832
6.80008300882579E-07,-78.1651153564453
6.8500836191848E-07,-78.0427398681641
6.90008422954382E-07,-77.9476623535156
6.95008483990283E-07,-77.8906173706055
7.00008545026184E-07,-77.8823318481445
7.05008606062086E-07,-77.9335403442383
7.10008667097987E-07,-78.0549545288086
7.15008728133888E-07,-78.2573089599609
7.2000878916979E-07,-78.5513305664063
7.25008850205691E-07,-78.9477462768555
7.30008911241592E-07,-79.5112380981445
7.35008972277494E-07,-80.2735137939453
7.40009033313395E-07,-81.1958694458008
7.45009094349296E-07,-82.2395858764648
7.50009155385198E-07,-83.3659515380859
7.55009216421099E-07,-84.536262512207
7.60009277457E-07,-85.711799621582
7.65009338492901E-07,-86.8538436889648
7.70009399528803E-07,-87.9236907958984
7.75009460564704E-07,-88.8826217651367
7.80009521600605E-07,-89.6919250488281
7.85009582636507E-07,-90.3128890991211
7.90009643672408E-07,-90.7068023681641
7.95009704708309E-07,-90.8489685058594
8.00009765744211E-07,-90.7770462036133
8.05009826780112E-07,-90.5211486816406
8.10009887816013E-07,-90.109130859375
8.15009948851915E-07,-89.5688400268555
8.20010009887816E-07,-88.9281234741211
8.25010070923717E-07,-88.2148361206055
8.30010131959619E-07,-87.4568252563477
8.3501019299552E-07,-86.6819305419922
8.40010254031421E-07,-85.9180145263672
8.45010315067323E-07,-85.1929168701172
8.50010376103224E-07,-84.5344848632813
8.55010437139125E-07,-83.970573425293
8.60010498175026E-07,-83.5220947265625
8.65010559210928E-07,-83.1183013916016
8.70010620246829E-07,-82.7330856323242
8.7501068128273E-07,-82.3659973144531
8.80010742318632E-07,-82.0165710449219
8.85010803354533E-07,-81.6843566894531
8.90010864390434E-07,-81.3689041137695
8.95010925426336E-07,-81.0697402954102
9.00010986462237E-07,-80.7864227294922
9.05011047498138E-07,-80.5185012817383
9.1001110853404E-07,-80.2655029296875
9.15011169569941E-07,-80.026985168457
9.20011230605842E-07,-79.802490234375
9.25011291641744E-07,-79.591552734375
9.30011352677645E-07,-79.4012451171875
9.35011413713546E-07,-79.2368469238281
9.40011474749448E-07,-79.0952224731445
9.45011535785349E-07,-78.9732513427734
9.5001159682125E-07,-78.867805480957
9.55011657857151E-07,-78.7757568359375
9.60011718893053E-07,-78.693977355957
9.65011779928954E-07,-78.6193389892578
9.70011840964855E-07,-78.5487213134766
9.75011902000757E-07,-78.4789886474609
9.80011963036658E-07,-78.4070129394531
9.85012024072559E-07,-78.3296813964844
9.90012085108461E-07,-78.2438507080078
9.95012146144362E-07,-78.1504974365234
1.00001220718026E-06,-78.0608139038086
1.00501226821616E-06,-77.9748840332031
1.01001232925207E-06,-77.8918075561523
1.01501239028797E-06,-77.8106689453125
1.02001245132387E-06,-77.7305603027344
1.02501251235977E-06,-77.6505889892578
1.03001257339567E-06,-77.5698318481445
1.03501263443157E-06,-77.4873962402344
1.04001269546747E-06,-77.4023742675781
1.04501275650338E-06,-77.313850402832
1.05001281753928E-06,-77.2209243774414
1.05501287857518E-06,-77.1226959228516
1.06001293961108E-06,-77.0182342529297
1.06501300064698E-06,-76.906867980957
1.07001306168288E-06,-76.789421081543
1.07501312271878E-06,-76.6669540405273
1.08001318375468E-06,-76.5405197143555
1.08501324479059E-06,-76.4111709594727
1.09001330582649E-06,-76.2799758911133
1.09501336686239E-06,-76.1479873657227
1.10001342789829E-06,-76.0162734985352
1.10501348893419E-06,-75.8858795166016
1.11001354997009E-06,-75.7578735351563
1.11501361100599E-06,-75.6333084106445
1.1200136720419E-06,-75.5132446289063
1.1250137330778E-06,-75.3987426757813
1.1300137941137E-06,-75.2848892211914
1.1350138551496E-06,-75.1671981811523
1.1400139161855E-06,-75.0473327636719
1.1450139772214E-06,-74.9269714355469
1.1500140382573E-06,-74.8077774047852
1.1550140992932E-06,-74.6914215087891
1.16001416032911E-06,-74.57958984375
1.16501422136501E-06,-74.4739379882813
1.17001428240091E-06,-74.3761444091797
1.17501434343681E-06,-74.2878799438477
1.18001440447271E-06,-74.2108154296875
1.18501446550861E-06,-74.1466217041016
1.19001452654451E-06,-74.0969696044922
1.19501458758041E-06,-74.060546875
1.20001464861632E-06,-74.029167175293
1.20501470965222E-06,-74.00341796875
1.21001477068812E-06,-73.9846420288086
1.21501483172402E-06,-73.9741744995117
1.22001489275992E-06,-73.9733428955078
1.22501495379582E-06,-73.9834823608398
1.23001501483172E-06,-74.0059356689453
1.23501507586763E-06,-74.0420303344727
1.24001513690353E-06,-74.0931015014648
1.24501519793943E-06,-74.1604919433594
1.25001525897533E-06,-74.2455215454102
1.25501532001123E-06,-74.3495407104492
1.26001538104713E-06,-74.4739151000977
1.26501544208303E-06,-74.6196136474609
1.27001550311893E-06,-74.7854461669922
1.27501556415484E-06,-74.9698486328125
1.28001562519074E-06,-75.171257019043
1.28501568622664E-06,-75.3881149291992
1.29001574726254E-06,-75.6188659667969
1.29501580829844E-06,-75.8619384765625
1.30001586933434E-06,-76.1157760620117
1.30501593037024E-06,-76.3788223266602
1.31001599140614E-06,-76.6495132446289
1.31501605244205E-06,-76.9262847900391
1.32001611347795E-06,-77.2075805664063
1.32501617451385E-06,-77.4918365478516
1.33001623554975E-06,-77.7933349609375
1.33501629658565E-06,-78.1234588623047
1.34001635762155E-06,-78.4763107299805
1.34501641865745E-06,-78.8460159301758
1.35001647969336E-06,-79.2266693115234
1.35501654072926E-06,-79.6123962402344
1.36001660176516E-06,-79.9972991943359
1.36501666280106E-06,-80.3754806518555
1.37001672383696E-06,-80.7410659790039
1.37501678487286E-06,-81.0881576538086
1.38001684590876E-06,-81.4108657836914
1.38501690694466E-06,-81.7033081054688
1.39001696798057E-06,-81.9595794677734
1.39501702901647E-06,-82.1797027587891
1.40001709005237E-06,-82.3797988891602
1.40501715108827E-06,-82.5614471435547
1.41001721212417E-06,-82.7248687744141
1.41501727316007E-06,-82.8702774047852
1.42001733419597E-06,-82.9979019165039
1.42501739523188E-06,-83.1079483032227
1.43001745626778E-06,-83.2006454467773
1.43501751730368E-06,-83.2762145996094
1.44001757833958E-06,-83.3348770141602
1.44501763937548E-06,-83.376838684082
1.45001770041138E-06,-83.4023361206055
1.45501776144728E-06,-83.4115753173828
1.46001782248318E-06,-83.4030075073242
1.46501788351909E-06,-83.3558349609375
1.47001794455499E-06,-83.2695922851563
1.47501800559089E-06,-83.1514205932617
1.48001806662679E-06,-83.0084457397461
1.48501812766269E-06,-82.8478240966797
1.49001818869859E-06,-82.6766815185547
1.49501824973449E-06,-82.5021591186523
1.5000183107704E-06,-82.3313980102539
1.5050183718063E-06,-82.1715316772461
1.5100184328422E-06,-82.0297164916992
1.5150184938781E-06,-81.9130706787109
1.520018554914E-06,-81.828742980957
1.5250186159499E-06,-81.7838668823242
1.5300186769858E-06,-81.7614440917969
1.5350187380217E-06,-81.7419891357422
1.54001879905761E-06,-81.7289657592773
1.54501886009351E-06,-81.7258224487305
1.55001892112941E-06,-81.7360153198242
1.55501898216531E-06,-81.7629852294922
1.56001904320121E-06,-81.8101959228516
1.56501910423711E-06,-81.8810958862305
1.57001916527301E-06,-81.9791259765625
1.57501922630891E-06,-82.1077499389648
1.58001928734482E-06,-82.2704162597656
1.58501934838072E-06,-82.4705810546875
1.59001940941662E-06,-82.7116928100586
1.59501947045252E-06,-83.0126800537109
1.60001953148842E-06,-83.4163055419922
1.60501959252432E-06,-83.9065704345703
1.61001965356022E-06,-84.4631576538086
1.61501971459613E-06,-85.0657501220703
1.62001977563203E-06,-85.6940383911133
1.62501983666793E-06,-86.3277053833008
1.63001989770383E-06,-86.9464340209961
1.63501995873973E-06,-87.529914855957
1.64002001977563E-06,-88.0578308105469
1.64502008081153E-06,-88.5098571777344
1.65002014184743E-06,-88.8656997680664
1.65502020288334E-06,-89.1050262451172
1.66002026391924E-06,-89.2097930908203
1.66502032495514E-06,-89.1985931396484
1.67002038599104E-06,-89.0900497436523
1.67502044702694E-06,-88.8961334228516
1.68002050806284E-06,-88.6288375854492
1.68502056909874E-06,-88.3001251220703
1.69002063013465E-06,-87.9219741821289
1.69502069117055E-06,-87.5063781738281
1.70002075220645E-06,-87.0653076171875
1.70502081324235E-06,-86.6107330322266
1.71002087427825E-06,-86.1546478271484
1.71502093531415E-06,-85.7090225219727
1.72002099635005E-06,-85.2858276367188
1.72502105738595E-06,-84.8970565795898
1.73002111842186E-06,-84.5127105712891
1.73502117945776E-06,-84.0991287231445
1.74002124049366E-06,-83.6628189086914
1.74502130152956E-06,-83.2102737426758
1.75002136256546E-06,-82.7480010986328
1.75502142360136E-06,-82.2824935913086
1.76002148463726E-06,-81.8202590942383
1.76502154567316E-06,-81.3677978515625
1.77002160670907E-06,-80.9315948486328
1.77502166774497E-06,-80.5181732177734
1.78002172878087E-06,-80.1340103149414
1.78502178981677E-06,-79.7856216430664
1.79002185085267E-06,-79.4794998168945
1.79502191188857E-06,-79.2141799926758
1.80002197292447E-06,-78.9678649902344
1.80502203396038E-06,-78.7399673461914
1.81002209499628E-06,-78.5317916870117
1.81502215603218E-06,-78.3446502685547
1.82002221706808E-06,-78.1798400878906
1.82502227810398E-06,-78.0386810302734
1.83002233913988E-06,-77.9224624633789
1.83502240017578E-06,-77.8325119018555
1.84002246121168E-06,-77.7701187133789
1.84502252224759E-06,-77.7366027832031
1.85002258328349E-06,-77.7332611083984
1.85502264431939E-06,-77.7614059448242
1.86002270535529E-06,-77.8239822387695
1.86502276639119E-06,-77.940788269043
1.87002282742709E-06,-78.1109085083008
1.87502288846299E-06,-78.3261566162109
1.8800229494989E-06,-78.5783462524414
1.8850230105348E-06,-78.8592987060547
1.8900230715707E-06,-79.1608352661133
1.8950231326066E-06,-79.4747695922852
1.9000231936425E-06,-79.7929306030273
1.9050232546784E-06,-80.1071243286133
1.9100233157143E-06,-80.4091720581055
1.9150233767502E-06,-80.6908950805664
1.92002343778611E-06,-80.9441146850586
1.92502349882201E-06,-81.16064453125
1.93002355985791E-06,-81.3530807495117
1.93502362089381E-06,-81.5390701293945
1.94002368192971E-06,-81.7180252075195
1.94502374296561E-06,-81.8893356323242
1.95002380400151E-06,-82.0524063110352
1.95502386503741E-06,-82.2066345214844
1.96002392607332E-06,-82.3514251708984
1.96502398710922E-06,-82.4861755371094
1.97002404814512E-06,-82.6102828979492
1.97502410918102E-06,-82.72314453125
1.98002417021692E-06,-82.8241729736328
1.98502423125282E-06,-82.9127578735352
1.99002429228872E-06,-82.9882965087891
1.99502435332463E-06,-83.0431594848633
2.00002441436053E-06,-83.0579071044922
2.00502447539643E-06,-83.0387954711914
2.01002453643233E-06,-82.9939804077148
2.01502459746823E-06,-82.931640625
2.02002465850413E-06,-82.8599472045898
2.02502471954003E-06,-82.7870559692383
2.03002478057593E-06,-82.7211456298828
2.03502484161184E-06,-82.6703872680664
2.04002490264774E-06,-82.642936706543
2.04502496368364E-06,-82.64697265625
2.05002502471954E-06,-82.6906585693359
2.05502508575544E-06,-82.7821731567383
2.06002514679134E-06,-82.9276657104492
2.06502520782724E-06,-83.1067047119141
2.07002526886315E-06,-83.3116302490234
2.07502532989905E-06,-83.5422134399414
2.08002539093495E-06,-83.7981872558594
2.08502545197085E-06,-84.0793304443359
2.09002551300675E-06,-84.3853759765625
2.09502557404265E-06,-84.7161026000977
2.10002563507855E-06,-85.0712432861328
2.10502569611445E-06,-85.450569152832
2.11002575715036E-06,-85.8538284301758
2.11502581818626E-06,-86.2807693481445
2.12002587922216E-06,-86.7311630249023
2.12502594025806E-06,-87.2047576904297
2.13002600129396E-06,-87.7477493286133
2.13502606232986E-06,-88.3916091918945
2.14002612336576E-06,-89.1140365600586
2.14502618440166E-06,-89.8927307128906
2.15002624543757E-06,-90.7053833007813
2.15502630647347E-06,-91.5296859741211
2.16002636750937E-06,-92.3433380126953
2.16502642854527E-06,-93.1240234375
2.17002648958117E-06,-93.8494415283203
2.17502655061707E-06,-94.4972915649414
2.18002661165297E-06,-95.0452575683594
2.18502667268888E-06,-95.4710388183594
2.19002673372478E-06,-95.7523345947266
2.19502679476068E-06,-95.8709945678711
2.20002685579658E-06,-95.8379669189453
2.20502691683248E-06,-95.6737060546875
2.21002697786838E-06,-95.3984222412109
2.21502703890428E-06,-95.0323181152344
2.22002709994018E-06,-94.5956192016602
2.22502716097609E-06,-94.108528137207
2.23002722201199E-06,-93.5912475585938
2.23502728304789E-06,-93.0639877319336
2.24002734408379E-06,-92.5469665527344
2.24502740511969E-06,-92.0603942871094
2.25002746615559E-06,-91.6244659423828
2.25502752719149E-06,-91.259407043457
2.2600275882274E-06,-90.9814224243164
2.2650276492633E-06,-90.7513732910156
2.2700277102992E-06,-90.5504684448242
2.2750277713351E-06,-90.3740844726563
2.280027832371E-06,-90.2175674438477
2.2850278934069E-06,-90.076301574707
2.2900279544428E-06,-89.9456329345703
2.2950280154787E-06,-89.820930480957
2.30002807651461E-06,-89.6975708007813
2.30502813755051E-06,-89.5708999633789
2.31002819858641E-06,-89.4362945556641
2.31502825962231E-06,-89.2891082763672
2.32002832065821E-06,-89.1247177124023
2.32502838169411E-06,-88.9384765625
2.33002844273001E-06,-88.7406234741211
2.33502850376592E-06,-88.5432662963867
2.34002856480182E-06,-88.3445434570313
2.34502862583772E-06,-88.1426162719727
2.35002868687362E-06,-87.9356231689453
2.35502874790952E-06,-87.7217330932617
2.36002880894542E-06,-87.4990844726563
2.36502886998132E-06,-87.2658386230469
2.37002893101722E-06,-87.0201416015625
2.37502899205313E-06,-86.760139465332
2.38002905308903E-06,-86.484001159668
2.38502911412493E-06,-86.1898574829102
2.39002917516083E-06,-85.8758773803711
2.39502923619673E-06,-85.5366744995117
2.40002929723263E-06,-85.1624755859375
2.40502935826853E-06,-84.758056640625
2.41002941930443E-06,-84.3292236328125
2.41502948034034E-06,-83.8817825317383
2.42002954137624E-06,-83.4215393066406
2.42502960241214E-06,-82.9542999267578
2.43002966344804E-06,-82.4858703613281
2.43502972448394E-06,-82.0220489501953
2.44002978551984E-06,-81.5686416625977
2.44502984655574E-06,-81.131462097168
2.45002990759165E-06,-80.71630859375
2.45502996862755E-06,-80.328987121582
2.46003002966345E-06,-79.9735946655273
2.46503009069935E-06,-79.6322174072266
2.47003015173525E-06,-79.2993774414063
