Trace
Swept SA
A.19.55,N9020B
508 AB2 B25 B40 B85 DP2 DP4 EP2 FS1 FS2 MPB RTL ,01
Segment,0
Number of Points,81920
Sweep Time,0.0004096
Start Frequency,2400000000
Stop Frequency,2400000000
Average Count,0
Average Type,LogPower(Video)
RBW,3000000
RBW Filter,Gaussian
RBW Filter BW,3dB
VBW,3000000
Sweep Type,Swept
X Axis Scale,Lin
PreAmp State,Off
PreAmp Band,Low
Trigger Source,Ext1
Trigger Level,1.2
Trigger Slope,Positive
Trigger Delay,1E-06
Phase Noise Optimization,Fast
Swept If Gain,Low
FFT If Gain,Autorange
RF Coupling,AC
FFT Width,411900
Ext Ref,10000000
Input,RF
RF Calibrator,Off
Attenuation,6
Ref Level Offset,0
External Gain,0
Trace Type,Clearwrite
Detector,Normal
Trace Math,Off
Trace Math Oper1,Trace5
Trace Math Oper2,Trace6
Trace Math Offset,0
Normalize,Off
Trace Name,Trace1
X Axis Units,s
Y Axis Units,dBm
DATA
0,-53.4509582519531
5.00006103590132E-09,-54.2473640441895
1.00001220718026E-08,-55.1085090637207
1.50001831077039E-08,-56.0116920471191
2.00002441436053E-08,-56.9341888427734
2.50003051795066E-08,-57.8532943725586
3.00003662154079E-08,-58.7462882995605
3.50004272513092E-08,-59.590461730957
4.00004882872105E-08,-60.3631019592285
4.50005493231118E-08,-61.0414924621582
5.00006103590132E-08,-61.6029205322266
5.50006713949145E-08,-62.0246734619141
6.00007324308158E-08,-62.2850494384766
6.50007934667171E-08,-62.3870849609375
7.00008545026184E-08,-62.3513641357422
7.50009155385197E-08,-62.1975517272949
8.00009765744211E-08,-61.9453048706055
8.50010376103224E-08,-61.6142883300781
9.00010986462237E-08,-61.2241706848145
9.5001159682125E-08,-60.7946128845215
1.00001220718026E-07,-60.3452758789063
1.05001281753928E-07,-59.8958282470703
1.10001342789829E-07,-59.4659271240234
1.1500140382573E-07,-59.0752410888672
1.20001464861632E-07,-58.7434310913086
1.25001525897533E-07,-58.490161895752
1.30001586933434E-07,-58.2776260375977
1.35001647969336E-07,-58.0583114624023
1.40001709005237E-07,-57.8373222351074
1.45001770041138E-07,-57.6197700500488
1.50001831077039E-07,-57.410758972168
1.55001892112941E-07,-57.2153930664063
1.60001953148842E-07,-57.0387802124023
1.65002014184743E-07,-56.8860321044922
1.70002075220645E-07,-56.7622489929199
1.75002136256546E-07,-56.6725387573242
1.80002197292447E-07,-56.6220092773438
1.85002258328349E-07,-56.6157646179199
1.9000231936425E-07,-56.6589164733887
1.95002380400151E-07,-56.7586898803711
2.00002441436053E-07,-56.9210662841797
2.05002502471954E-07,-57.1389083862305
2.10002563507855E-07,-57.4043121337891
2.15002624543757E-07,-57.7093734741211
2.20002685579658E-07,-58.0461845397949
2.25002746615559E-07,-58.4068374633789
2.30002807651461E-07,-58.7834281921387
2.35002868687362E-07,-59.1680488586426
2.40002929723263E-07,-59.5527954101563
2.45002990759165E-07,-59.9297561645508
2.50003051795066E-07,-60.2910308837891
2.55003112830967E-07,-60.6287078857422
2.60003173866868E-07,-60.9386901855469
2.6500323490277E-07,-61.2626457214355
2.70003295938671E-07,-61.6082763671875
2.75003356974572E-07,-61.9680824279785
2.80003418010474E-07,-62.3345794677734
2.85003479046375E-07,-62.7002792358398
2.90003540082276E-07,-63.0576858520508
2.95003601118178E-07,-63.3993110656738
3.00003662154079E-07,-63.7176628112793
3.0500372318998E-07,-64.0052490234375
3.10003784225882E-07,-64.2545852661133
3.15003845261783E-07,-64.4581832885742
3.20003906297684E-07,-64.6085357666016
3.25003967333586E-07,-64.6981735229492
3.30004028369487E-07,-64.7037811279297
3.35004089405388E-07,-64.6179885864258
3.4000415044129E-07,-64.4571990966797
3.45004211477191E-07,-64.2378005981445
3.50004272513092E-07,-63.976188659668
3.55004333548993E-07,-63.6887626647949
3.60004394584895E-07,-63.391918182373
3.65004455620796E-07,-63.1020469665527
3.70004516656697E-07,-62.8355522155762
3.75004577692599E-07,-62.6088218688965
3.800046387285E-07,-62.4382553100586
3.85004699764401E-07,-62.3402481079102
3.90004760800303E-07,-62.3311996459961
3.95004821836204E-07,-62.4273643493652
4.00004882872105E-07,-62.6287803649902
4.05004943908007E-07,-62.9180793762207
4.10005004943908E-07,-63.2772789001465
4.15005065979809E-07,-63.6884078979492
4.20005127015711E-07,-64.1334915161133
4.25005188051612E-07,-64.5945434570313
4.30005249087513E-07,-65.053596496582
4.35005310123415E-07,-65.49267578125
4.40005371159316E-07,-65.8938064575195
4.45005432195217E-07,-66.2389984130859
4.50005493231119E-07,-66.5102844238281
4.5500555426702E-07,-66.689697265625
4.60005615302921E-07,-66.7611770629883
4.65005676338822E-07,-66.7403869628906
4.70005737374724E-07,-66.6437835693359
4.75005798410625E-07,-66.4822616577148
4.80005859446526E-07,-66.2666931152344
4.85005920482428E-07,-66.0079727172852
4.90005981518329E-07,-65.7169723510742
4.9500604255423E-07,-65.4045867919922
5.00006103590132E-07,-65.0816955566406
5.05006164626033E-07,-64.7591781616211
5.10006225661934E-07,-64.4479293823242
5.15006286697836E-07,-64.158821105957
5.20006347733737E-07,-63.9027404785156
5.25006408769638E-07,-63.6905746459961
5.3000646980554E-07,-63.483024597168
5.35006530841441E-07,-63.241382598877
5.40006591877342E-07,-62.9774131774902
5.45006652913243E-07,-62.7028770446777
5.50006713949145E-07,-62.4295387268066
5.55006774985046E-07,-62.1691589355469
5.60006836020948E-07,-61.9334983825684
5.65006897056849E-07,-61.7343254089355
5.7000695809275E-07,-61.5833969116211
5.75007019128651E-07,-61.4924812316895
5.80007080164553E-07,-61.4733390808105
5.85007141200454E-07,-61.537727355957
5.90007202236355E-07,-61.6974182128906
5.95007263272257E-07,-61.9815063476563
6.00007324308158E-07,-62.4380798339844
6.05007385344059E-07,-63.0407943725586
6.10007446379961E-07,-63.7581748962402
6.15007507415862E-07,-64.5587463378906
6.20007568451763E-07,-65.411018371582
6.25007629487665E-07,-66.2835235595703
6.30007690523566E-07,-67.144775390625
6.35007751559467E-07,-67.9633026123047
6.40007812595369E-07,-68.7076263427734
6.4500787363127E-07,-69.3462677001953
6.50007934667171E-07,-69.8477478027344
6.55007995703072E-07,-70.1805877685547
6.60008056738974E-07,-70.3159408569336
6.65008117774875E-07,-70.2724685668945
6.70008178810776E-07,-70.0788955688477
6.75008239846678E-07,-69.7573623657227
6.80008300882579E-07,-69.3300170898438
6.8500836191848E-07,-68.8190078735352
6.90008422954382E-07,-68.2464904785156
6.95008483990283E-07,-67.6346054077148
7.00008545026184E-07,-67.0055084228516
7.05008606062086E-07,-66.3813400268555
7.10008667097987E-07,-65.7842636108398
7.15008728133888E-07,-65.2364120483398
7.2000878916979E-07,-64.7599411010742
7.25008850205691E-07,-64.3770065307617
7.30008911241592E-07,-64.0531768798828
7.35008972277494E-07,-63.7404747009277
7.40009033313395E-07,-63.4406661987305
7.45009094349296E-07,-63.1555290222168
7.50009155385198E-07,-62.8868408203125
7.55009216421099E-07,-62.6363792419434
7.60009277457E-07,-62.4059219360352
7.65009338492901E-07,-62.1972427368164
7.70009399528803E-07,-62.0121154785156
7.75009460564704E-07,-61.8523254394531
7.80009521600605E-07,-61.7196426391602
7.85009582636507E-07,-61.6158447265625
7.90009643672408E-07,-61.5427093505859
7.95009704708309E-07,-61.5075988769531
8.00009765744211E-07,-61.5259552001953
8.05009826780112E-07,-61.5914421081543
8.10009887816013E-07,-61.6961364746094
8.15009948851915E-07,-61.8321266174316
8.20010009887816E-07,-61.9914932250977
8.25010070923717E-07,-62.1663131713867
8.30010131959619E-07,-62.3486785888672
8.3501019299552E-07,-62.5306625366211
8.40010254031421E-07,-62.7043571472168
8.45010315067323E-07,-62.8618354797363
8.50010376103224E-07,-62.9951858520508
8.55010437139125E-07,-63.0964889526367
8.60010498175026E-07,-63.1593170166016
8.65010559210928E-07,-63.1980667114258
8.70010620246829E-07,-63.2200889587402
8.7501068128273E-07,-63.2275276184082
8.80010742318632E-07,-63.2225341796875
8.85010803354533E-07,-63.2072448730469
8.90010864390434E-07,-63.1838073730469
8.95010925426336E-07,-63.154369354248
9.00010986462237E-07,-63.1210746765137
9.05011047498138E-07,-63.0860633850098
9.1001110853404E-07,-63.0514907836914
9.15011169569941E-07,-63.0194892883301
9.20011230605842E-07,-62.9922142028809
9.25011291641744E-07,-62.9718055725098
9.30011352677645E-07,-62.9174308776855
9.35011413713546E-07,-62.7991065979004
9.40011474749448E-07,-62.6352462768555
9.45011535785349E-07,-62.444263458252
9.5001159682125E-07,-62.2445755004883
9.55011657857151E-07,-62.0545997619629
9.60011718893053E-07,-61.8927459716797
9.65011779928954E-07,-61.7774353027344
9.70011840964855E-07,-61.7270774841309
9.75011902000757E-07,-61.7600898742676
9.80011963036658E-07,-61.894889831543
9.85012024072559E-07,-62.1498908996582
9.90012085108461E-07,-62.5435066223145
9.95012146144362E-07,-63.1240005493164
1.00001220718026E-06,-63.9741249084473
1.00501226821616E-06,-65.0504760742188
1.01001232925207E-06,-66.3008880615234
1.01501239028797E-06,-67.6732025146484
1.02001245132387E-06,-69.1152496337891
1.02501251235977E-06,-70.5748596191406
1.03001257339567E-06,-71.999870300293
1.03501263443157E-06,-73.3381195068359
1.04001269546747E-06,-74.5374374389648
1.04501275650338E-06,-75.545654296875
1.05001281753928E-06,-76.3106079101563
1.05501287857518E-06,-76.7801361083984
1.06001293961108E-06,-76.9045257568359
1.06501300064698E-06,-76.6923217773438
1.07001306168288E-06,-76.1908111572266
1.07501312271878E-06,-75.4446105957031
1.08001318375468E-06,-74.4983139038086
1.08501324479059E-06,-73.3965377807617
1.09001330582649E-06,-72.1838912963867
1.09501336686239E-06,-70.9049835205078
1.10001342789829E-06,-69.6044158935547
1.10501348893419E-06,-68.3268051147461
1.11001354997009E-06,-67.1167526245117
1.11501361100599E-06,-66.0188751220703
1.1200136720419E-06,-65.077766418457
1.1250137330778E-06,-64.3380508422852
1.1300137941137E-06,-63.745792388916
1.1350138551496E-06,-63.2147102355957
1.1400139161855E-06,-62.740909576416
1.1450139772214E-06,-62.320484161377
1.1500140382573E-06,-61.9495277404785
1.1550140992932E-06,-61.624137878418
1.16001416032911E-06,-61.3404121398926
1.16501422136501E-06,-61.0944442749023
1.17001428240091E-06,-60.8823280334473
1.17501434343681E-06,-60.7001686096191
1.18001440447271E-06,-60.5440559387207
1.18501446550861E-06,-60.410083770752
1.19001452654451E-06,-60.2943534851074
1.19501458758041E-06,-60.2052268981934
1.20001464861632E-06,-60.1764144897461
1.20501470965222E-06,-60.2023239135742
1.21001477068812E-06,-60.2741889953613
1.21501483172402E-06,-60.3832511901855
1.22001489275992E-06,-60.520751953125
1.22501495379582E-06,-60.6779289245605
1.23001501483172E-06,-60.8460311889648
1.23501507586763E-06,-61.0162925720215
1.24001513690353E-06,-61.1799545288086
1.24501519793943E-06,-61.3282585144043
1.25001525897533E-06,-61.4524459838867
1.25501532001123E-06,-61.543758392334
1.26001538104713E-06,-61.5953063964844
1.26501544208303E-06,-61.625732421875
1.27001550311893E-06,-61.6431922912598
1.27501556415484E-06,-61.6491165161133
1.28001562519074E-06,-61.6449127197266
1.28501568622664E-06,-61.6320114135742
1.29001574726254E-06,-61.6118240356445
1.29501580829844E-06,-61.5857734680176
1.30001586933434E-06,-61.5552787780762
1.30501593037024E-06,-61.5217552185059
1.31001599140614E-06,-61.486629486084
1.31501605244205E-06,-61.4513168334961
1.32001611347795E-06,-61.4172401428223
1.32501617451385E-06,-61.3858108520508
1.33001623554975E-06,-61.326774597168
1.33501629658565E-06,-61.2180862426758
1.34001635762155E-06,-61.0735168457031
1.34501641865745E-06,-60.9068298339844
1.35001647969336E-06,-60.7317886352539
1.35501654072926E-06,-60.5621566772461
1.36001660176516E-06,-60.4117012023926
1.36501666280106E-06,-60.2941856384277
1.37001672383696E-06,-60.2233695983887
1.37501678487286E-06,-60.2130241394043
1.38001684590876E-06,-60.276912689209
1.38501690694466E-06,-60.4287986755371
1.39001696798057E-06,-60.6824417114258
1.39501702901647E-06,-61.0700836181641
1.40001709005237E-06,-61.6429748535156
1.40501715108827E-06,-62.3717384338379
1.41001721212417E-06,-63.2214813232422
1.41501727316007E-06,-64.1573028564453
1.42001733419597E-06,-65.1443099975586
1.42501739523188E-06,-66.1476058959961
1.43001745626778E-06,-67.1322860717773
1.43501751730368E-06,-68.0634689331055
1.44001757833958E-06,-68.9062423706055
1.44501763937548E-06,-69.6257171630859
1.45001770041138E-06,-70.1870040893555
1.45501776144728E-06,-70.5551910400391
1.46001782248318E-06,-70.6977767944336
1.46501788351909E-06,-70.6291122436523
1.47001794455499E-06,-70.3809432983398
1.47501800559089E-06,-69.9800643920898
1.48001806662679E-06,-69.4532699584961
1.48501812766269E-06,-68.8273391723633
1.49001818869859E-06,-68.1290588378906
1.49501824973449E-06,-67.3852310180664
1.5000183107704E-06,-66.6226272583008
1.5050183718063E-06,-65.8680419921875
1.5100184328422E-06,-65.1482696533203
1.5150184938781E-06,-64.4900894165039
1.520018554914E-06,-63.9202995300293
1.5250186159499E-06,-63.4656829833984
1.5300186769858E-06,-63.0929489135742
1.5350187380217E-06,-62.7496757507324
1.54001879905761E-06,-62.433967590332
1.54501886009351E-06,-62.1439094543457
1.55001892112941E-06,-61.8776016235352
1.55501898216531E-06,-61.6331367492676
1.56001904320121E-06,-61.4086112976074
1.56501910423711E-06,-61.2021179199219
1.57001916527301E-06,-61.0117568969727
1.57501922630891E-06,-60.835620880127
1.58001928734482E-06,-60.671802520752
1.58501934838072E-06,-60.5183982849121
1.59001940941662E-06,-60.3735046386719
1.59501947045252E-06,-60.2455978393555
1.60001953148842E-06,-60.1632499694824
1.60501959252432E-06,-60.1202278137207
1.61001965356022E-06,-60.1075706481934
1.61501971459613E-06,-60.1163177490234
1.62001977563203E-06,-60.1375122070313
1.62501983666793E-06,-60.1621894836426
1.63001989770383E-06,-60.1813926696777
1.63501995873973E-06,-60.1861572265625
1.64002001977563E-06,-60.1675262451172
1.64502008081153E-06,-60.1165428161621
1.65002014184743E-06,-60.0242385864258
1.65502020288334E-06,-59.8816604614258
1.66002026391924E-06,-59.6810035705566
1.66502032495514E-06,-59.4323844909668
1.67002038599104E-06,-59.1440315246582
1.67502044702694E-06,-58.8205642700195
1.68002050806284E-06,-58.4665832519531
1.68502056909874E-06,-58.0867042541504
1.69002063013465E-06,-57.6855392456055
1.69502069117055E-06,-57.267692565918
1.70002075220645E-06,-56.837776184082
1.70502081324235E-06,-56.4003982543945
1.71002087427825E-06,-55.9601745605469
1.71502093531415E-06,-55.5217056274414
1.72002099635005E-06,-55.0896110534668
1.72502105738595E-06,-54.6684913635254
1.73002111842186E-06,-54.2427024841309
1.73502117945776E-06,-53.7965202331543
1.74002124049366E-06,-53.3344383239746
1.74502130152956E-06,-52.8609619140625
1.75002136256546E-06,-52.3805847167969
1.75502142360136E-06,-51.8978080749512
1.76002148463726E-06,-51.4171295166016
1.76502154567316E-06,-50.9430541992188
1.77002160670907E-06,-50.4800720214844
1.77502166774497E-06,-50.0326919555664
1.78002172878087E-06,-49.6054039001465
1.78502178981677E-06,-49.2027168273926
1.79002185085267E-06,-48.8291206359863
1.79502191188857E-06,-48.4829788208008
1.80002197292447E-06,-48.1474761962891
1.80502203396038E-06,-47.8227043151855
1.81002209499628E-06,-47.5102386474609
1.81502215603218E-06,-47.2116432189941
1.82002221706808E-06,-46.9284973144531
1.82502227810398E-06,-46.6623687744141
1.83002233913988E-06,-46.4148330688477
1.83502240017578E-06,-46.1874580383301
1.84002246121168E-06,-45.981819152832
1.84502252224759E-06,-45.7994842529297
1.85002258328349E-06,-45.6420288085938
1.85502264431939E-06,-45.5110244750977
1.86002270535529E-06,-45.4073104858398
1.86502276639119E-06,-45.3228645324707
1.87002282742709E-06,-45.256160736084
1.87502288846299E-06,-45.2085952758789
1.8800229494989E-06,-45.1815643310547
1.8850230105348E-06,-45.1764640808105
1.8900230715707E-06,-45.1946868896484
1.8950231326066E-06,-45.2376289367676
1.9000231936425E-06,-45.3066864013672
1.9050232546784E-06,-45.4032516479492
1.9100233157143E-06,-45.5287208557129
1.9150233767502E-06,-45.6844940185547
1.92002343778611E-06,-45.8719596862793
1.92502349882201E-06,-46.0925178527832
1.93002355985791E-06,-46.3362083435059
1.93502362089381E-06,-46.5947380065918
1.94002368192971E-06,-46.8720092773438
1.94502374296561E-06,-47.171932220459
1.95002380400151E-06,-47.4984016418457
1.95502386503741E-06,-47.8553276062012
1.96002392607332E-06,-48.2466087341309
1.96502398710922E-06,-48.6761512756348
1.97002404814512E-06,-49.1478500366211
1.97502410918102E-06,-49.6656188964844
1.98002417021692E-06,-50.2333526611328
1.98502423125282E-06,-50.8549613952637
1.99002429228872E-06,-51.5343399047852
1.99502435332463E-06,-52.2877960205078
2.00002441436053E-06,-53.149600982666
2.00502447539643E-06,-54.1057243347168
2.01002453643233E-06,-55.1386413574219
2.01502459746823E-06,-56.2308235168457
2.02002465850413E-06,-57.3647422790527
2.02502471954003E-06,-58.5228691101074
2.03002478057593E-06,-59.6876754760742
2.03502484161184E-06,-60.8416328430176
2.04002490264774E-06,-61.9672164916992
2.04502496368364E-06,-63.0468978881836
2.05002502471954E-06,-64.0631484985352
2.05502508575544E-06,-64.9984436035156
2.06002514679134E-06,-65.8406219482422
2.06502520782724E-06,-66.6460952758789
2.07002526886315E-06,-67.4314575195313
2.07502532989905E-06,-68.1927947998047
2.08002539093495E-06,-68.9262008666992
2.08502545197085E-06,-69.6277694702148
2.09002551300675E-06,-70.2936019897461
2.09502557404265E-06,-70.9197769165039
2.10002563507855E-06,-71.5024032592773
2.10502569611445E-06,-72.0375671386719
2.11002575715036E-06,-72.521354675293
2.11502581818626E-06,-72.9498672485352
2.12002587922216E-06,-73.3191986083984
2.12502594025806E-06,-73.6254425048828
2.13002600129396E-06,-73.8597564697266
2.13502606232986E-06,-74.0205230712891
2.14002612336576E-06,-74.1146850585938
2.14502618440166E-06,-74.1491928100586
2.15002624543757E-06,-74.1309814453125
2.15502630647347E-06,-74.0669937133789
2.16002636750937E-06,-73.9641723632813
2.16502642854527E-06,-73.8294525146484
2.17002648958117E-06,-73.6697845458984
2.17502655061707E-06,-73.4921035766602
2.18002661165297E-06,-73.3033599853516
2.18502667268888E-06,-73.1104888916016
2.19002673372478E-06,-72.9204330444336
2.19502679476068E-06,-72.7327575683594
2.20002685579658E-06,-72.5273208618164
2.20502691683248E-06,-72.3025741577148
2.21002697786838E-06,-72.058723449707
2.21502703890428E-06,-71.7959442138672
2.22002709994018E-06,-71.5144195556641
2.22502716097609E-06,-71.2143478393555
2.23002722201199E-06,-70.8959121704102
2.23502728304789E-06,-70.5592956542969
2.24002734408379E-06,-70.2046890258789
2.24502740511969E-06,-69.832275390625
2.25002746615559E-06,-69.4422454833984
2.25502752719149E-06,-69.034782409668
2.2600275882274E-06,-68.6071395874023
2.2650276492633E-06,-68.1248016357422
2.2700277102992E-06,-67.5871505737305
2.2750277713351E-06,-67.0061950683594
2.280027832371E-06,-66.3939437866211
2.2850278934069E-06,-65.7624053955078
2.2900279544428E-06,-65.1235961914063
2.2950280154787E-06,-64.4895248413086
2.30002807651461E-06,-63.8721961975098
2.30502813755051E-06,-63.2836227416992
2.31002819858641E-06,-62.7358169555664
2.31502825962231E-06,-62.2407875061035
2.32002832065821E-06,-61.810546875
2.32502838169411E-06,-61.4570999145508
2.33002844273001E-06,-61.1523971557617
2.33502850376592E-06,-60.8640556335449
2.34002856480182E-06,-60.5976142883301
2.34502862583772E-06,-60.3586082458496
2.35002868687362E-06,-60.1525726318359
2.35502874790952E-06,-59.9850387573242
2.36002880894542E-06,-59.8615417480469
2.36502886998132E-06,-59.7876205444336
2.37002893101722E-06,-59.7688026428223
2.37502899205313E-06,-59.8106269836426
2.38002905308903E-06,-59.9186248779297
2.38502911412493E-06,-60.098331451416
2.39002917516083E-06,-60.3552856445313
2.39502923619673E-06,-60.7197952270508
2.40002929723263E-06,-61.2603034973145
2.40502935826853E-06,-61.9511909484863
2.41002941930443E-06,-62.7599258422852
2.41502948034034E-06,-63.6539840698242
2.42002954137624E-06,-64.6008377075195
2.42502960241214E-06,-65.5679702758789
2.43002966344804E-06,-66.5228424072266
2.43502972448394E-06,-67.4329376220703
2.44002978551984E-06,-68.2657318115234
2.44502984655574E-06,-68.9886932373047
2.45002990759165E-06,-69.5693054199219
2.45502996862755E-06,-69.9750289916992
2.46003002966345E-06,-70.1760864257813
2.46503009069935E-06,-70.1919403076172
