Trace
Swept SA
A.19.55,N9020B
508 AB2 B25 B40 B85 DP2 DP4 EP2 FS1 FS2 MPB RTL ,01
Segment,0
Number of Points,81920
Sweep Time,0.0004096
Start Frequency,2400000000
Stop Frequency,2400000000
Average Count,0
Average Type,LogPower(Video)
RBW,3000000
RBW Filter,Gaussian
RBW Filter BW,3dB
VBW,3000000
Sweep Type,Swept
X Axis Scale,Lin
PreAmp State,Off
PreAmp Band,Low
Trigger Source,Ext1
Trigger Level,1.2
Trigger Slope,Positive
Trigger Delay,1E-06
Phase Noise Optimization,Fast
Swept If Gain,Low
FFT If Gain,Autorange
RF Coupling,AC
FFT Width,411900
Ext Ref,10000000
Input,RF
RF Calibrator,Off
Attenuation,6
Ref Level Offset,0
External Gain,0
Trace Type,Clearwrite
Detector,Normal
Trace Math,Off
Trace Math Oper1,Trace5
Trace Math Oper2,Trace6
Trace Math Offset,0
Normalize,Off
Trace Name,Trace1
X Axis Units,s
Y Axis Units,dBm
DATA
0,-94.3298797607422
5.00006103590132E-09,-93.7935791015625
1.00001220718026E-08,-93.1475296020508
1.50001831077039E-08,-92.4117965698242
2.00002441436053E-08,-91.6064376831055
2.50003051795066E-08,-90.7515106201172
3.00003662154079E-08,-89.8670654296875
3.50004272513092E-08,-88.9731750488281
4.00004882872105E-08,-88.0898895263672
4.50005493231118E-08,-87.2372665405273
5.00006103590132E-08,-86.4353713989258
5.50006713949145E-08,-85.7042541503906
6.00007324308158E-08,-85.0584335327148
6.50007934667171E-08,-84.4404144287109
7.00008545026184E-08,-83.8313140869141
7.50009155385197E-08,-83.2330932617188
8.00009765744211E-08,-82.6477432250977
8.50010376103224E-08,-82.0772399902344
9.00010986462237E-08,-81.5235595703125
9.5001159682125E-08,-80.9886779785156
1.00001220718026E-07,-80.4745712280273
1.05001281753928E-07,-79.9832229614258
1.10001342789829E-07,-79.5166015625
1.1500140382573E-07,-79.0766983032227
1.20001464861632E-07,-78.6654739379883
1.25001525897533E-07,-78.2849197387695
1.30001586933434E-07,-77.9338302612305
1.35001647969336E-07,-77.6091842651367
1.40001709005237E-07,-77.3102416992188
1.45001770041138E-07,-77.0362319946289
1.50001831077039E-07,-76.7864151000977
1.55001892112941E-07,-76.5600357055664
1.60001953148842E-07,-76.356330871582
1.65002014184743E-07,-76.174560546875
1.70002075220645E-07,-76.0139617919922
1.75002136256546E-07,-75.8737869262695
1.80002197292447E-07,-75.7532730102539
1.85002258328349E-07,-75.6516799926758
1.9000231936425E-07,-75.568244934082
1.95002380400151E-07,-75.5033264160156
2.00002441436053E-07,-75.4599685668945
2.05002502471954E-07,-75.4380874633789
2.10002563507855E-07,-75.4373397827148
2.15002624543757E-07,-75.4573669433594
2.20002685579658E-07,-75.4978179931641
2.25002746615559E-07,-75.558349609375
2.30002807651461E-07,-75.6386032104492
2.35002868687362E-07,-75.7382354736328
2.40002929723263E-07,-75.8568878173828
2.45002990759165E-07,-75.9942169189453
2.50003051795066E-07,-76.1498641967773
2.55003112830967E-07,-76.323486328125
2.60003173866868E-07,-76.5158233642578
2.6500323490277E-07,-76.7396240234375
2.70003295938671E-07,-76.9953689575195
2.75003356974572E-07,-77.2788772583008
2.80003418010474E-07,-77.5859832763672
2.85003479046375E-07,-77.9124908447266
2.90003540082276E-07,-78.2542343139648
2.95003601118178E-07,-78.6070327758789
3.00003662154079E-07,-78.9667053222656
3.0500372318998E-07,-79.3290786743164
3.10003784225882E-07,-79.6899642944336
3.15003845261783E-07,-80.0451965332031
3.20003906297684E-07,-80.3905868530273
3.25003967333586E-07,-80.7219696044922
3.30004028369487E-07,-81.0578460693359
3.35004089405388E-07,-81.4154052734375
3.4000415044129E-07,-81.7884674072266
3.45004211477191E-07,-82.1708374023438
3.50004272513092E-07,-82.5563278198242
3.55004333548993E-07,-82.9387664794922
3.60004394584895E-07,-83.3119506835938
3.65004455620796E-07,-83.6697082519531
3.70004516656697E-07,-84.0058517456055
3.75004577692599E-07,-84.3141860961914
3.800046387285E-07,-84.5885391235352
3.85004699764401E-07,-84.8227157592773
3.90004760800303E-07,-85.0105285644531
3.95004821836204E-07,-85.1468658447266
4.00004882872105E-07,-85.2344818115234
4.05004943908007E-07,-85.2791290283203
4.10005004943908E-07,-85.2865219116211
4.15005065979809E-07,-85.2623596191406
4.20005127015711E-07,-85.2123489379883
4.25005188051612E-07,-85.1421966552734
4.30005249087513E-07,-85.0576095581055
4.35005310123415E-07,-84.9643020629883
4.40005371159316E-07,-84.8679656982422
4.45005432195217E-07,-84.7743148803711
4.50005493231119E-07,-84.6890640258789
4.5500555426702E-07,-84.6179046630859
4.60005615302921E-07,-84.564338684082
4.65005676338822E-07,-84.5045928955078
4.70005737374724E-07,-84.4331741333008
4.75005798410625E-07,-84.3532867431641
4.80005859446526E-07,-84.2681045532227
4.85005920482428E-07,-84.1808166503906
4.90005981518329E-07,-84.094612121582
4.9500604255423E-07,-84.0126647949219
5.00006103590132E-07,-83.9381637573242
5.05006164626033E-07,-83.8742980957031
5.10006225661934E-07,-83.8242492675781
5.15006286697836E-07,-83.7911987304688
5.20006347733737E-07,-83.7783432006836
5.25006408769638E-07,-83.7888565063477
5.3000646980554E-07,-83.8173751831055
5.35006530841441E-07,-83.8567276000977
5.40006591877342E-07,-83.907356262207
5.45006652913243E-07,-83.9697265625
5.50006713949145E-07,-84.0442962646484
5.55006774985046E-07,-84.1315231323242
5.60006836020948E-07,-84.2318649291992
5.65006897056849E-07,-84.3457717895508
5.7000695809275E-07,-84.4737167358398
5.75007019128651E-07,-84.6161422729492
5.80007080164553E-07,-84.7735137939453
5.85007141200454E-07,-84.9462890625
5.90007202236355E-07,-85.1349258422852
5.95007263272257E-07,-85.3492813110352
6.00007324308158E-07,-85.6153030395508
6.05007385344059E-07,-85.9250183105469
6.10007446379961E-07,-86.2678909301758
6.15007507415862E-07,-86.6333847045898
6.20007568451763E-07,-87.0109786987305
6.25007629487665E-07,-87.39013671875
6.30007690523566E-07,-87.7603302001953
6.35007751559467E-07,-88.1110229492188
6.40007812595369E-07,-88.4316864013672
6.4500787363127E-07,-88.7117919921875
6.50007934667171E-07,-88.940803527832
6.55007995703072E-07,-89.1081924438477
6.60008056738974E-07,-89.2052841186523
6.65008117774875E-07,-89.2498321533203
6.70008178810776E-07,-89.251594543457
6.75008239846678E-07,-89.2139129638672
6.80008300882579E-07,-89.14013671875
6.8500836191848E-07,-89.0336227416992
6.90008422954382E-07,-88.8977127075195
6.95008483990283E-07,-88.7357635498047
7.00008545026184E-07,-88.5511245727539
7.05008606062086E-07,-88.3471374511719
7.10008667097987E-07,-88.1271514892578
7.15008728133888E-07,-87.89453125
7.2000878916979E-07,-87.6526107788086
7.25008850205691E-07,-87.4047470092773
7.30008911241592E-07,-87.1313323974609
7.35008972277494E-07,-86.8153991699219
7.40009033313395E-07,-86.4642028808594
7.45009094349296E-07,-86.0850219726563
7.50009155385198E-07,-85.6851348876953
7.55009216421099E-07,-85.2717971801758
7.60009277457E-07,-84.8522872924805
7.65009338492901E-07,-84.4338760375977
7.70009399528803E-07,-84.0238342285156
7.75009460564704E-07,-83.6294403076172
7.80009521600605E-07,-83.2579498291016
7.85009582636507E-07,-82.9166488647461
7.90009643672408E-07,-82.61279296875
7.95009704708309E-07,-82.3450698852539
8.00009765744211E-07,-82.089958190918
8.05009826780112E-07,-81.8465423583984
8.10009887816013E-07,-81.6159591674805
8.15009948851915E-07,-81.3993301391602
8.20010009887816E-07,-81.1977844238281
8.25010070923717E-07,-81.012451171875
8.30010131959619E-07,-80.8444519042969
8.3501019299552E-07,-80.6949234008789
8.40010254031421E-07,-80.5649871826172
8.45010315067323E-07,-80.4557647705078
8.50010376103224E-07,-80.3683929443359
8.55010437139125E-07,-80.3040008544922
8.60010498175026E-07,-80.2628021240234
8.65010559210928E-07,-80.2346038818359
8.70010620246829E-07,-80.2182464599609
8.7501068128273E-07,-80.21630859375
8.80010742318632E-07,-80.2313537597656
8.85010803354533E-07,-80.2659606933594
8.90010864390434E-07,-80.3226928710938
8.95010925426336E-07,-80.4041213989258
9.00010986462237E-07,-80.512825012207
9.05011047498138E-07,-80.6513748168945
9.1001110853404E-07,-80.8223266601563
9.15011169569941E-07,-81.0282669067383
9.20011230605842E-07,-81.2717666625977
9.25011291641744E-07,-81.5553817749023
9.30011352677645E-07,-81.9030151367188
9.35011413713546E-07,-82.3279342651367
9.40011474749448E-07,-82.816780090332
9.45011535785349E-07,-83.3561859130859
9.5001159682125E-07,-83.9328002929688
9.55011657857151E-07,-84.5332641601563
9.60011718893053E-07,-85.1442184448242
9.65011779928954E-07,-85.7523040771484
9.70011840964855E-07,-86.3441543579102
9.75011902000757E-07,-86.9064254760742
9.80011963036658E-07,-87.4257431030273
9.85012024072559E-07,-87.8887557983398
9.90012085108461E-07,-88.282112121582
9.95012146144362E-07,-88.6089935302734
1.00001220718026E-06,-88.914680480957
1.00501226821616E-06,-89.2002487182617
1.01001232925207E-06,-89.4628295898438
1.01501239028797E-06,-89.6995391845703
1.02001245132387E-06,-89.9075088500977
1.02501251235977E-06,-90.0838623046875
1.03001257339567E-06,-90.2257232666016
1.03501263443157E-06,-90.3302230834961
1.04001269546747E-06,-90.3944854736328
1.04501275650338E-06,-90.4156341552734
1.05001281753928E-06,-90.3907928466797
1.05501287857518E-06,-90.3170928955078
1.06001293961108E-06,-90.189826965332
1.06501300064698E-06,-89.9863128662109
1.07001306168288E-06,-89.708869934082
1.07501312271878E-06,-89.3681106567383
1.08001318375468E-06,-88.9746627807617
1.08501324479059E-06,-88.5391616821289
1.09001330582649E-06,-88.0722274780273
1.09501336686239E-06,-87.5844879150391
1.10001342789829E-06,-87.0865783691406
1.10501348893419E-06,-86.589111328125
1.11001354997009E-06,-86.1027221679688
1.11501361100599E-06,-85.6380462646484
1.1200136720419E-06,-85.2056884765625
1.1250137330778E-06,-84.8162994384766
1.1300137941137E-06,-84.4496612548828
1.1350138551496E-06,-84.0802764892578
1.1400139161855E-06,-83.7107696533203
1.1450139772214E-06,-83.3438034057617
1.1500140382573E-06,-82.9820098876953
1.1550140992932E-06,-82.6280364990234
1.16001416032911E-06,-82.284538269043
1.16501422136501E-06,-81.9541549682617
1.17001428240091E-06,-81.6395263671875
1.17501434343681E-06,-81.3433074951172
1.18001440447271E-06,-81.0681381225586
1.18501446550861E-06,-80.8166656494141
1.19001452654451E-06,-80.5915298461914
1.19501458758041E-06,-80.3911209106445
1.20001464861632E-06,-80.2037582397461
1.20501470965222E-06,-80.0300064086914
1.21001477068812E-06,-79.8714904785156
1.21501483172402E-06,-79.7298278808594
1.22001489275992E-06,-79.6066360473633
1.22501495379582E-06,-79.503532409668
1.23001501483172E-06,-79.4221343994141
1.23501507586763E-06,-79.3640670776367
1.24001513690353E-06,-79.330940246582
1.24501519793943E-06,-79.3243789672852
1.25001525897533E-06,-79.3460006713867
1.25501532001123E-06,-79.3974227905273
1.26001538104713E-06,-79.4807739257813
1.26501544208303E-06,-79.6027297973633
1.27001550311893E-06,-79.7619094848633
1.27501556415484E-06,-79.9544830322266
1.28001562519074E-06,-80.176628112793
1.28501568622664E-06,-80.4244918823242
1.29001574726254E-06,-80.6942596435547
1.29501580829844E-06,-80.9820938110352
1.30001586933434E-06,-81.2841567993164
1.30501593037024E-06,-81.5966262817383
1.31001599140614E-06,-81.9156646728516
1.31501605244205E-06,-82.237434387207
1.32001611347795E-06,-82.5581130981445
1.32501617451385E-06,-82.8738632202148
1.33001623554975E-06,-83.2136611938477
1.33501629658565E-06,-83.6013717651367
1.34001635762155E-06,-84.0254821777344
1.34501641865745E-06,-84.4744873046875
1.35001647969336E-06,-84.936882019043
1.35501654072926E-06,-85.4011535644531
1.36001660176516E-06,-85.8557968139648
1.36501666280106E-06,-86.289306640625
1.37001672383696E-06,-86.6901626586914
1.37501678487286E-06,-87.046875
1.38001684590876E-06,-87.3479232788086
1.38501690694466E-06,-87.5818023681641
1.39001696798057E-06,-87.7370071411133
1.39501702901647E-06,-87.8040390014648
1.40001709005237E-06,-87.7881240844727
1.40501715108827E-06,-87.6999435424805
1.41001721212417E-06,-87.5500717163086
1.41501727316007E-06,-87.3491058349609
1.42001733419597E-06,-87.1076126098633
1.42501739523188E-06,-86.836181640625
1.43001745626778E-06,-86.5453872680664
1.43501751730368E-06,-86.2458114624023
1.44001757833958E-06,-85.9480438232422
1.44501763937548E-06,-85.6626586914063
1.45001770041138E-06,-85.4002456665039
1.45501776144728E-06,-85.1713714599609
1.46001782248318E-06,-84.9839019775391
1.46501788351909E-06,-84.8098068237305
1.47001794455499E-06,-84.6391525268555
1.47501800559089E-06,-84.4721755981445
1.48001806662679E-06,-84.3090972900391
1.48501812766269E-06,-84.150146484375
1.49001818869859E-06,-83.9955520629883
1.49501824973449E-06,-83.8455505371094
1.5000183107704E-06,-83.7003555297852
1.5050183718063E-06,-83.5602111816406
1.5100184328422E-06,-83.4253387451172
1.5150184938781E-06,-83.2959747314453
1.520018554914E-06,-83.1723327636719
1.5250186159499E-06,-83.0546569824219
1.5300186769858E-06,-82.9383850097656
1.5350187380217E-06,-82.8202056884766
1.54001879905761E-06,-82.7021713256836
1.54501886009351E-06,-82.5863265991211
1.55001892112941E-06,-82.4747467041016
1.55501898216531E-06,-82.3694763183594
1.56001904320121E-06,-82.2725830078125
1.56501910423711E-06,-82.1861190795898
1.57001916527301E-06,-82.1121368408203
1.57501922630891E-06,-82.0527038574219
1.58001928734482E-06,-82.0098724365234
1.58501934838072E-06,-81.9857025146484
1.59001940941662E-06,-81.9822463989258
1.59501947045252E-06,-81.9932098388672
1.60001953148842E-06,-81.99560546875
1.60501959252432E-06,-81.993896484375
1.61001965356022E-06,-81.9947052001953
1.61501971459613E-06,-82.0046768188477
1.62001977563203E-06,-82.0304336547852
1.62501983666793E-06,-82.07861328125
1.63001989770383E-06,-82.1558532714844
1.63501995873973E-06,-82.2687759399414
1.64002001977563E-06,-82.4240264892578
1.64502008081153E-06,-82.6282272338867
1.65002014184743E-06,-82.8880157470703
1.65502020288334E-06,-83.2100296020508
1.66002026391924E-06,-83.6071548461914
1.66502032495514E-06,-84.1557159423828
1.67002038599104E-06,-84.850715637207
1.67502044702694E-06,-85.6591567993164
1.68002050806284E-06,-86.5480499267578
1.68502056909874E-06,-87.4843978881836
1.69002063013465E-06,-88.4352264404297
1.69502069117055E-06,-89.3675231933594
1.70002075220645E-06,-90.2483215332031
1.70502081324235E-06,-91.0446090698242
1.71002087427825E-06,-91.7234115600586
1.71502093531415E-06,-92.2517242431641
1.72002099635005E-06,-92.5965728759766
1.72502105738595E-06,-92.7249526977539
1.73002111842186E-06,-92.6226348876953
1.73502117945776E-06,-92.3168563842773
1.74002124049366E-06,-91.8368453979492
1.74502130152956E-06,-91.211799621582
1.75002136256546E-06,-90.470947265625
1.75502142360136E-06,-89.6434860229492
1.76002148463726E-06,-88.7586441040039
1.76502154567316E-06,-87.8456344604492
1.77002160670907E-06,-86.9336700439453
1.77502166774497E-06,-86.0519561767578
1.78002172878087E-06,-85.2297134399414
1.78502178981677E-06,-84.4961624145508
1.79002185085267E-06,-83.8805084228516
1.79502191188857E-06,-83.3803024291992
1.80002197292447E-06,-82.9089889526367
1.80502203396038E-06,-82.4606246948242
1.81002209499628E-06,-82.0366744995117
1.81502215603218E-06,-81.6385955810547
1.82002221706808E-06,-81.2678527832031
1.82502227810398E-06,-80.925910949707
1.83002233913988E-06,-80.6142272949219
1.83502240017578E-06,-80.3342742919922
1.84002246121168E-06,-80.0874938964844
1.84502252224759E-06,-79.875373840332
1.85002258328349E-06,-79.6993560791016
1.85502264431939E-06,-79.5609130859375
1.86002270535529E-06,-79.463005065918
1.86502276639119E-06,-79.4238739013672
1.87002282742709E-06,-79.4424362182617
1.87502288846299E-06,-79.5109252929688
1.8800229494989E-06,-79.6215515136719
1.8850230105348E-06,-79.7665634155273
1.8900230715707E-06,-79.9381637573242
1.8950231326066E-06,-80.1286010742188
1.9000231936425E-06,-80.3300857543945
1.9050232546784E-06,-80.5348587036133
1.9100233157143E-06,-80.7351379394531
1.9150233767502E-06,-80.9231491088867
1.92002343778611E-06,-81.0911178588867
1.92502349882201E-06,-81.2312774658203
1.93002355985791E-06,-81.3562316894531
1.93502362089381E-06,-81.4831848144531
1.94002368192971E-06,-81.6112442016602
1.94502374296561E-06,-81.7395477294922
1.95002380400151E-06,-81.8672027587891
1.95502386503741E-06,-81.9933319091797
1.96002392607332E-06,-82.1170501708984
1.96502398710922E-06,-82.2374801635742
1.97002404814512E-06,-82.3537445068359
1.97502410918102E-06,-82.4649505615234
1.98002417021692E-06,-82.5702362060547
1.98502423125282E-06,-82.668701171875
1.99002429228872E-06,-82.7594757080078
1.99502435332463E-06,-82.8340148925781
2.00002441436053E-06,-82.8711776733398
2.00502447539643E-06,-82.8779907226563
2.01002453643233E-06,-82.8636093139648
2.01502459746823E-06,-82.8371658325195
2.02002465850413E-06,-82.8078002929688
2.02502471954003E-06,-82.7846603393555
2.03002478057593E-06,-82.7768707275391
2.03502484161184E-06,-82.7935791015625
2.04002490264774E-06,-82.8439254760742
2.04502496368364E-06,-82.9370498657227
2.05002502471954E-06,-83.0820846557617
2.05502508575544E-06,-83.2881851196289
2.06002514679134E-06,-83.5682067871094
2.06502520782724E-06,-83.9696197509766
2.07002526886315E-06,-84.4847869873047
2.07502532989905E-06,-85.0886001586914
2.08002539093495E-06,-85.755973815918
2.08502545197085E-06,-86.461799621582
2.09002551300675E-06,-87.1809921264648
2.09502557404265E-06,-87.8884429931641
2.10002563507855E-06,-88.5590515136719
2.10502569611445E-06,-89.1677398681641
2.11002575715036E-06,-89.6893920898438
2.11502581818626E-06,-90.0989151000977
2.12002587922216E-06,-90.371208190918
2.12502594025806E-06,-90.4811859130859
2.13002600129396E-06,-90.4193496704102
2.13502606232986E-06,-90.2073135375977
2.14002612336576E-06,-89.8666534423828
2.14502618440166E-06,-89.4189605712891
2.15002624543757E-06,-88.8857955932617
2.15502630647347E-06,-88.2887420654297
2.16002636750937E-06,-87.6493835449219
2.16502642854527E-06,-86.9892807006836
2.17002648958117E-06,-86.3300247192383
2.17502655061707E-06,-85.6931838989258
2.18002661165297E-06,-85.100341796875
2.18502667268888E-06,-84.5730743408203
2.19002673372478E-06,-84.1329498291016
2.19502679476068E-06,-83.7777709960938
2.20002685579658E-06,-83.4425430297852
2.20502691683248E-06,-83.123176574707
2.21002697786838E-06,-82.8211669921875
2.21502703890428E-06,-82.5380249023438
2.22002709994018E-06,-82.2752304077148
2.22502716097609E-06,-82.0342864990234
2.23002722201199E-06,-81.8166885375977
2.23502728304789E-06,-81.6239318847656
2.24002734408379E-06,-81.4575042724609
2.24502740511969E-06,-81.3189163208008
2.25002746615559E-06,-81.2096557617188
2.25502752719149E-06,-81.131217956543
2.2600275882274E-06,-81.0852661132813
2.2650276492633E-06,-81.0743942260742
2.2700277102992E-06,-81.0972900390625
2.2750277713351E-06,-81.1516723632813
2.280027832371E-06,-81.2352600097656
2.2850278934069E-06,-81.3457641601563
2.2900279544428E-06,-81.4809112548828
2.2950280154787E-06,-81.6384124755859
2.30002807651461E-06,-81.8160018920898
2.30502813755051E-06,-82.0113906860352
2.31002819858641E-06,-82.2222900390625
2.31502825962231E-06,-82.4464340209961
2.32002832065821E-06,-82.6815338134766
2.32502838169411E-06,-82.9253082275391
2.33002844273001E-06,-83.1608657836914
2.33502850376592E-06,-83.3793411254883
2.34002856480182E-06,-83.5904846191406
2.34502862583772E-06,-83.8040771484375
2.35002868687362E-06,-84.0298538208008
2.35502874790952E-06,-84.277587890625
2.36002880894542E-06,-84.5570373535156
2.36502886998132E-06,-84.8779525756836
2.37002893101722E-06,-85.2501068115234
2.37502899205313E-06,-85.6832504272461
2.38002905308903E-06,-86.1871337890625
2.38502911412493E-06,-86.7715377807617
2.39002917516083E-06,-87.4462051391602
2.39502923619673E-06,-88.2565155029297
2.40002929723263E-06,-89.3008880615234
2.40502935826853E-06,-90.5405731201172
2.41002941930443E-06,-91.9268188476563
2.41502948034034E-06,-93.4108810424805
2.42002954137624E-06,-94.9440231323242
2.42502960241214E-06,-96.4774856567383
2.43002966344804E-06,-97.9625396728516
2.43502972448394E-06,-99.3504333496094
2.44002978551984E-06,-100.592422485352
2.44502984655574E-06,-101.639755249023
2.45002990759165E-06,-102.443702697754
2.45502996862755E-06,-102.955505371094
2.46003002966345E-06,-103.127738952637
2.46503009069935E-06,-102.956703186035
2.47003015173525E-06,-102.486450195313
