Trace
Swept SA
A.19.55,N9020B
508 AB2 B25 B40 B85 DP2 DP4 EP2 FS1 FS2 MPB RTL ,01
Segment,0
Number of Points,81920
Sweep Time,0.0004096
Start Frequency,2400000000
Stop Frequency,2400000000
Average Count,0
Average Type,LogPower(Video)
RBW,3000000
RBW Filter,Gaussian
RBW Filter BW,3dB
VBW,3000000
Sweep Type,Swept
X Axis Scale,Lin
PreAmp State,Off
PreAmp Band,Low
Trigger Source,Ext1
Trigger Level,1.2
Trigger Slope,Positive
Trigger Delay,1E-06
Phase Noise Optimization,Fast
Swept If Gain,Low
FFT If Gain,Autorange
RF Coupling,AC
FFT Width,411900
Ext Ref,10000000
Input,RF
RF Calibrator,Off
Attenuation,6
Ref Level Offset,0
External Gain,0
Trace Type,Clearwrite
Detector,Normal
Trace Math,Off
Trace Math Oper1,Trace5
Trace Math Oper2,Trace6
Trace Math Offset,0
Normalize,Off
Trace Name,Trace1
X Axis Units,s
Y Axis Units,dBm
DATA
0,-60.0494079589844
5.00006103590132E-09,-59.9471206665039
1.00001220718026E-08,-59.5988349914551
1.50001831077039E-08,-59.0488586425781
2.00002441436053E-08,-58.3414993286133
2.50003051795066E-08,-57.5210647583008
3.00003662154079E-08,-56.6318588256836
3.50004272513092E-08,-55.7181930541992
4.00004882872105E-08,-54.8243713378906
4.50005493231118E-08,-53.9946975708008
5.00006103590132E-08,-53.2734870910645
5.50006713949145E-08,-52.7050399780273
6.00007324308158E-08,-52.3221549987793
6.50007934667171E-08,-52.0067443847656
7.00008545026184E-08,-51.7171974182129
7.50009155385197E-08,-51.4547386169434
8.00009765744211E-08,-51.2206001281738
8.50010376103224E-08,-51.0160179138184
9.00010986462237E-08,-50.8422203063965
9.5001159682125E-08,-50.700439453125
1.00001220718026E-07,-50.5919075012207
1.05001281753928E-07,-50.5178565979004
1.10001342789829E-07,-50.4795150756836
1.1500140382573E-07,-50.4781150817871
1.20001464861632E-07,-50.514892578125
1.25001525897533E-07,-50.5910720825195
1.30001586933434E-07,-50.7424583435059
1.35001647969336E-07,-50.9918632507324
1.40001709005237E-07,-51.3210372924805
1.45001770041138E-07,-51.7117309570313
1.50001831077039E-07,-52.1457023620605
1.55001892112941E-07,-52.6046943664551
1.60001953148842E-07,-53.0704689025879
1.65002014184743E-07,-53.5247764587402
1.70002075220645E-07,-53.9493637084961
1.75002136256546E-07,-54.325984954834
1.80002197292447E-07,-54.6363983154297
1.85002258328349E-07,-54.8623466491699
1.9000231936425E-07,-54.9855880737305
1.95002380400151E-07,-54.9925956726074
2.00002441436053E-07,-54.8959159851074
2.05002502471954E-07,-54.7112464904785
2.10002563507855E-07,-54.4537239074707
2.15002624543757E-07,-54.1384963989258
2.20002685579658E-07,-53.7806930541992
2.25002746615559E-07,-53.3954544067383
2.30002807651461E-07,-52.997917175293
2.35002868687362E-07,-52.6032257080078
2.40002929723263E-07,-52.2265090942383
2.45002990759165E-07,-51.8829154968262
2.50003051795066E-07,-51.587574005127
2.55003112830967E-07,-51.3556327819824
2.60003173866868E-07,-51.1996383666992
2.6500323490277E-07,-51.0951614379883
2.70003295938671E-07,-51.0281867980957
2.75003356974572E-07,-50.9935188293457
2.80003418010474E-07,-50.985969543457
2.85003479046375E-07,-51.0003395080566
2.90003540082276E-07,-51.031436920166
2.95003601118178E-07,-51.0740661621094
3.00003662154079E-07,-51.1230354309082
3.0500372318998E-07,-51.1731491088867
3.10003784225882E-07,-51.2192153930664
3.15003845261783E-07,-51.2560386657715
3.20003906297684E-07,-51.2784233093262
3.25003967333586E-07,-51.281177520752
3.30004028369487E-07,-51.2749061584473
3.35004089405388E-07,-51.2725677490234
3.4000415044129E-07,-51.272518157959
3.45004211477191E-07,-51.2731094360352
3.50004272513092E-07,-51.2726936340332
3.55004333548993E-07,-51.2696228027344
3.60004394584895E-07,-51.2622451782227
3.65004455620796E-07,-51.2489166259766
3.70004516656697E-07,-51.2279891967773
3.75004577692599E-07,-51.1978073120117
3.800046387285E-07,-51.1567344665527
3.85004699764401E-07,-51.1031112670898
3.90004760800303E-07,-51.0352973937988
3.95004821836204E-07,-50.9468231201172
4.00004882872105E-07,-50.8243713378906
4.05004943908007E-07,-50.6735382080078
4.10005004943908E-07,-50.5012741088867
4.15005065979809E-07,-50.3145370483398
4.20005127015711E-07,-50.1202774047852
4.25005188051612E-07,-49.9254493713379
4.30005249087513E-07,-49.7370147705078
4.35005310123415E-07,-49.5619201660156
4.40005371159316E-07,-49.4071273803711
4.45005432195217E-07,-49.2795867919922
4.50005493231119E-07,-49.1862564086914
4.5500555426702E-07,-49.1340866088867
4.60005615302921E-07,-49.1294136047363
4.65005676338822E-07,-49.1676559448242
4.70005737374724E-07,-49.2424621582031
4.75005798410625E-07,-49.3491058349609
4.80005859446526E-07,-49.4828491210938
4.85005920482428E-07,-49.6389579772949
4.90005981518329E-07,-49.8127098083496
4.9500604255423E-07,-49.9993667602539
5.00006103590132E-07,-50.1941986083984
5.05006164626033E-07,-50.3924751281738
5.10006225661934E-07,-50.5894622802734
5.15006286697836E-07,-50.7804260253906
5.20006347733737E-07,-50.9606399536133
5.25006408769638E-07,-51.1253700256348
5.3000646980554E-07,-51.3005104064941
5.35006530841441E-07,-51.5088386535645
5.40006591877342E-07,-51.7409591674805
5.45006652913243E-07,-51.9874687194824
5.50006713949145E-07,-52.2389717102051
5.55006774985046E-07,-52.4860649108887
5.60006836020948E-07,-52.719352722168
5.65006897056849E-07,-52.9294357299805
5.7000695809275E-07,-53.1069107055664
5.75007019128651E-07,-53.2423858642578
5.80007080164553E-07,-53.3264541625977
5.85007141200454E-07,-53.3497200012207
5.90007202236355E-07,-53.3027877807617
5.95007263272257E-07,-53.1714668273926
6.00007324308158E-07,-52.9423332214355
6.05007385344059E-07,-52.6292152404785
6.10007446379961E-07,-52.2476081848145
6.15007507415862E-07,-51.8129920959473
6.20007568451763E-07,-51.3408584594727
6.25007629487665E-07,-50.8466949462891
6.30007690523566E-07,-50.3459854125977
6.35007751559467E-07,-49.8542251586914
6.40007812595369E-07,-49.3869018554688
6.4500787363127E-07,-48.9594955444336
6.50007934667171E-07,-48.5875015258789
6.55007995703072E-07,-48.2864036560059
6.60008056738974E-07,-48.0686225891113
6.65008117774875E-07,-47.9040794372559
6.70008178810776E-07,-47.7783737182617
6.75008239846678E-07,-47.6879806518555
6.80008300882579E-07,-47.6293792724609
6.8500836191848E-07,-47.5990447998047
6.90008422954382E-07,-47.5934562683105
6.95008483990283E-07,-47.6090850830078
7.00008545026184E-07,-47.6424140930176
7.05008606062086E-07,-47.6899147033691
7.10008667097987E-07,-47.7480621337891
7.15008728133888E-07,-47.8133392333984
7.2000878916979E-07,-47.8822212219238
7.25008850205691E-07,-47.9511795043945
7.30008911241592E-07,-48.0393943786621
7.35008972277494E-07,-48.1637535095215
7.40009033313395E-07,-48.3173141479492
7.45009094349296E-07,-48.4931221008301
7.50009155385198E-07,-48.6842346191406
7.55009216421099E-07,-48.8837051391602
7.60009277457E-07,-49.0845832824707
7.65009338492901E-07,-49.2799224853516
7.70009399528803E-07,-49.462776184082
7.75009460564704E-07,-49.6261978149414
7.80009521600605E-07,-49.763240814209
7.85009582636507E-07,-49.8669548034668
7.90009643672408E-07,-49.9303932189941
7.95009704708309E-07,-49.9478492736816
8.00009765744211E-07,-49.9225578308105
8.05009826780112E-07,-49.8609466552734
8.10009887816013E-07,-49.7693672180176
8.15009948851915E-07,-49.654182434082
8.20010009887816E-07,-49.5217514038086
8.25010070923717E-07,-49.3784294128418
8.30010131959619E-07,-49.2305755615234
8.3501019299552E-07,-49.0845489501953
8.40010254031421E-07,-48.9467086791992
8.45010315067323E-07,-48.823413848877
8.50010376103224E-07,-48.7210235595703
8.55010437139125E-07,-48.6458930969238
8.60010498175026E-07,-48.5996360778809
8.65010559210928E-07,-48.5288391113281
8.70010620246829E-07,-48.4270553588867
8.7501068128273E-07,-48.3073310852051
8.80010742318632E-07,-48.1827125549316
8.85010803354533E-07,-48.0662422180176
8.90010864390434E-07,-47.9709663391113
8.95010925426336E-07,-47.9099349975586
9.00010986462237E-07,-47.8961868286133
9.05011047498138E-07,-47.9427680969238
9.1001110853404E-07,-48.0627288818359
9.15011169569941E-07,-48.2691078186035
9.20011230605842E-07,-48.5749588012695
9.25011291641744E-07,-48.9933204650879
9.30011352677645E-07,-49.5944557189941
9.35011413713546E-07,-50.411262512207
9.40011474749448E-07,-51.4007415771484
9.45011535785349E-07,-52.519905090332
9.5001159682125E-07,-53.725757598877
9.55011657857151E-07,-54.9752998352051
9.60011718893053E-07,-56.2255439758301
9.65011779928954E-07,-57.4334907531738
9.70011840964855E-07,-58.5561485290527
9.75011902000757E-07,-59.5505180358887
9.80011963036658E-07,-60.373607635498
9.85012024072559E-07,-60.9824256896973
9.90012085108461E-07,-61.3339729309082
9.95012146144362E-07,-61.3958702087402
1.00001220718026E-06,-61.1962776184082
1.00501226821616E-06,-60.772590637207
1.01001232925207E-06,-60.161018371582
1.01501239028797E-06,-59.397777557373
1.02001245132387E-06,-58.5190734863281
1.02501251235977E-06,-57.5611190795898
1.03001257339567E-06,-56.5601272583008
1.03501263443157E-06,-55.552303314209
1.04001269546747E-06,-54.5738639831543
1.04501275650338E-06,-53.6610221862793
1.05001281753928E-06,-52.8499794006348
1.05501287857518E-06,-52.1769523620605
1.06001293961108E-06,-51.6702156066895
1.06501300064698E-06,-51.2505416870117
1.07001306168288E-06,-50.8841400146484
1.07501312271878E-06,-50.5659255981445
1.08001318375468E-06,-50.2907981872559
1.08501324479059E-06,-50.0536651611328
1.09001330582649E-06,-49.8494338989258
1.09501336686239E-06,-49.6730117797852
1.10001342789829E-06,-49.5193023681641
1.10501348893419E-06,-49.3832168579102
1.11001354997009E-06,-49.2596588134766
1.11501361100599E-06,-49.1435317993164
1.1200136720419E-06,-49.0297508239746
1.1250137330778E-06,-48.9132118225098
1.1300137941137E-06,-48.8108787536621
1.1350138551496E-06,-48.7398872375488
1.1400139161855E-06,-48.6954383850098
1.1450139772214E-06,-48.672721862793
1.1500140382573E-06,-48.6669311523438
1.1550140992932E-06,-48.6732635498047
1.16001416032911E-06,-48.6869125366211
1.16501422136501E-06,-48.703067779541
1.17001428240091E-06,-48.716926574707
1.17501434343681E-06,-48.7236862182617
1.18001440447271E-06,-48.7185325622559
1.18501446550861E-06,-48.6966667175293
1.19001452654451E-06,-48.6532783508301
1.19501458758041E-06,-48.5845375061035
1.20001464861632E-06,-48.4930191040039
1.20501470965222E-06,-48.3830642700195
1.21001477068812E-06,-48.2589492797852
1.21501483172402E-06,-48.124942779541
1.22001489275992E-06,-47.9853134155273
1.22501495379582E-06,-47.8443412780762
1.23001501483172E-06,-47.7062873840332
1.23501507586763E-06,-47.5754280090332
1.24001513690353E-06,-47.4560356140137
1.24501519793943E-06,-47.3523788452148
1.25001525897533E-06,-47.2687301635742
1.25501532001123E-06,-47.209358215332
1.26001538104713E-06,-47.1736259460449
1.26501544208303E-06,-47.1053848266602
1.27001550311893E-06,-47.0000343322754
1.27501556415484E-06,-46.8734931945801
1.28001562519074E-06,-46.7416839599609
1.28501568622664E-06,-46.6205177307129
1.29001574726254E-06,-46.5259132385254
1.29501580829844E-06,-46.4737930297852
1.30001586933434E-06,-46.4800720214844
1.30501593037024E-06,-46.5606651306152
1.31001599140614E-06,-46.7314949035645
1.31501605244205E-06,-47.0084762573242
1.32001611347795E-06,-47.407527923584
1.32501617451385E-06,-47.9445648193359
1.33001623554975E-06,-48.7049598693848
1.33501629658565E-06,-49.7286109924316
1.34001635762155E-06,-50.9632339477539
1.34501641865745E-06,-52.3565368652344
1.35001647969336E-06,-53.8562393188477
1.35501654072926E-06,-55.4100532531738
1.36001660176516E-06,-56.9656944274902
1.36501666280106E-06,-58.470874786377
1.37001672383696E-06,-59.8733100891113
1.37501678487286E-06,-61.1207160949707
1.38001684590876E-06,-62.1608047485352
1.38501690694466E-06,-62.9412879943848
1.39001696798057E-06,-63.4098854064941
1.39501702901647E-06,-63.52880859375
1.40001709005237E-06,-63.3366966247559
1.40501715108827E-06,-62.877758026123
1.41001721212417E-06,-62.1943359375
1.41501727316007E-06,-61.3287620544434
1.42001733419597E-06,-60.3233757019043
1.42501739523188E-06,-59.2205123901367
1.43001745626778E-06,-58.0625114440918
1.43501751730368E-06,-56.8917045593262
1.44001757833958E-06,-55.7504348754883
1.44501763937548E-06,-54.6810340881348
1.45001770041138E-06,-53.7258453369141
1.45501776144728E-06,-52.9271965026855
1.46001782248318E-06,-52.3189353942871
1.46501788351909E-06,-51.8176498413086
1.47001794455499E-06,-51.3839569091797
1.47501800559089E-06,-51.0086479187012
1.48001806662679E-06,-50.6825180053711
1.48501812766269E-06,-50.3963508605957
1.49001818869859E-06,-50.140941619873
1.49501824973449E-06,-49.9070777893066
1.5000183107704E-06,-49.6855506896973
1.5050183718063E-06,-49.4671516418457
1.5100184328422E-06,-49.2426719665527
1.5150184938781E-06,-49.0029029846191
1.520018554914E-06,-48.7386283874512
1.5250186159499E-06,-48.4406471252441
1.5300186769858E-06,-48.1277084350586
1.5350187380217E-06,-47.8227729797363
1.54001879905761E-06,-47.5229377746582
1.54501886009351E-06,-47.2252998352051
1.55001892112941E-06,-46.9269638061523
1.55501898216531E-06,-46.6250305175781
1.56001904320121E-06,-46.3165969848633
1.56501910423711E-06,-45.9987602233887
1.57001916527301E-06,-45.6686248779297
1.57501922630891E-06,-45.3232879638672
1.58001928734482E-06,-44.9598541259766
1.58501934838072E-06,-44.5754165649414
1.59001940941662E-06,-44.1670761108398
1.59501947045252E-06,-43.7303199768066
1.60001953148842E-06,-43.2606201171875
1.60501959252432E-06,-42.7623596191406
1.61001965356022E-06,-42.2404594421387
1.61501971459613E-06,-41.6998481750488
1.62001977563203E-06,-41.1454544067383
1.62501983666793E-06,-40.582202911377
1.63001989770383E-06,-40.015022277832
1.63501995873973E-06,-39.4488410949707
1.64002001977563E-06,-38.8885803222656
1.64502008081153E-06,-38.3391761779785
1.65002014184743E-06,-37.805549621582
1.65502020288334E-06,-37.2926254272461
1.66002026391924E-06,-36.8035049438477
1.66502032495514E-06,-36.318531036377
1.67002038599104E-06,-35.8329887390137
1.67502044702694E-06,-35.3493232727051
1.68002050806284E-06,-34.8699645996094
1.68502056909874E-06,-34.3973579406738
1.69002063013465E-06,-33.9339370727539
1.69502069117055E-06,-33.4821395874023
1.70002075220645E-06,-33.0444068908691
1.70502081324235E-06,-32.6231727600098
1.71002087427825E-06,-32.2208786010742
1.71502093531415E-06,-31.8399600982666
1.72002099635005E-06,-31.4828548431396
1.72502105738595E-06,-31.1520023345947
1.73002111842186E-06,-30.8423252105713
1.73502117945776E-06,-30.5476722717285
1.74002124049366E-06,-30.2688617706299
1.74502130152956E-06,-30.006721496582
1.75002136256546E-06,-29.7620677947998
1.75502142360136E-06,-29.5357265472412
1.76002148463726E-06,-29.328519821167
1.76502154567316E-06,-29.1412696838379
1.77002160670907E-06,-28.974796295166
1.77502166774497E-06,-28.8299236297607
1.78002172878087E-06,-28.7074756622314
1.78502178981677E-06,-28.6082725524902
1.79002185085267E-06,-28.5331344604492
1.79502191188857E-06,-28.4817981719971
1.80002197292447E-06,-28.4512729644775
1.80502203396038E-06,-28.4415512084961
1.81002209499628E-06,-28.4528865814209
1.81502215603218E-06,-28.4855346679688
1.82002221706808E-06,-28.5397491455078
1.82502227810398E-06,-28.6157817840576
1.83002233913988E-06,-28.7138900756836
1.83502240017578E-06,-28.8343238830566
1.84002246121168E-06,-28.9773406982422
1.84502252224759E-06,-29.1431922912598
1.85002258328349E-06,-29.3321323394775
1.85502264431939E-06,-29.5444164276123
1.86002270535529E-06,-29.780834197998
1.86502276639119E-06,-30.047815322876
1.87002282742709E-06,-30.3452129364014
1.87502288846299E-06,-30.6705265045166
1.8800229494989E-06,-31.0212574005127
1.8850230105348E-06,-31.3949012756348
1.8900230715707E-06,-31.7889633178711
1.8950231326066E-06,-32.2009391784668
1.9000231936425E-06,-32.6283302307129
1.9050232546784E-06,-33.0686340332031
1.9100233157143E-06,-33.5193557739258
1.9150233767502E-06,-33.9779891967773
1.92002343778611E-06,-34.4420356750488
1.92502349882201E-06,-34.9089965820313
1.93002355985791E-06,-35.397216796875
1.93502362089381E-06,-35.921875
1.94002368192971E-06,-36.4757423400879
1.94502374296561E-06,-37.051586151123
1.95002380400151E-06,-37.6421661376953
1.95502386503741E-06,-38.2402572631836
1.96002392607332E-06,-38.8386192321777
1.96502398710922E-06,-39.4300231933594
1.97002404814512E-06,-40.0072288513184
1.97502410918102E-06,-40.5630073547363
1.98002417021692E-06,-41.0901260375977
1.98502423125282E-06,-41.5813446044922
1.99002429228872E-06,-42.0294380187988
1.99502435332463E-06,-42.4299812316895
2.00002441436053E-06,-42.7905616760254
2.00502447539643E-06,-43.1166458129883
2.01002453643233E-06,-43.4132308959961
2.01502459746823E-06,-43.6853065490723
2.02002465850413E-06,-43.9378662109375
2.02502471954003E-06,-44.1759033203125
2.03002478057593E-06,-44.4044151306152
2.03502484161184E-06,-44.6283874511719
2.04002490264774E-06,-44.8528175354004
2.04502496368364E-06,-45.0826988220215
2.05002502471954E-06,-45.3230247497559
2.05502508575544E-06,-45.578784942627
2.06002514679134E-06,-45.8548011779785
2.06502520782724E-06,-46.1509742736816
2.07002526886315E-06,-46.4627876281738
2.07502532989905E-06,-46.785717010498
2.08002539093495E-06,-47.115234375
2.08502545197085E-06,-47.4468269348145
2.09002551300675E-06,-47.7759628295898
2.09502557404265E-06,-48.0981216430664
2.10002563507855E-06,-48.4087791442871
2.10502569611445E-06,-48.7034149169922
2.11002575715036E-06,-48.9775009155273
2.11502581818626E-06,-49.2265167236328
2.12002587922216E-06,-49.4459419250488
2.12502594025806E-06,-49.6312446594238
2.13002600129396E-06,-49.7955932617188
2.13502606232986E-06,-49.9529304504395
2.14002612336576E-06,-50.0999069213867
2.14502618440166E-06,-50.2331771850586
2.15002624543757E-06,-50.3493995666504
2.15502630647347E-06,-50.4452285766602
2.16002636750937E-06,-50.5173110961914
2.16502642854527E-06,-50.5623092651367
2.17002648958117E-06,-50.5768775939941
2.17502655061707E-06,-50.5576629638672
2.18002661165297E-06,-50.5013236999512
2.18502667268888E-06,-50.4045143127441
2.19002673372478E-06,-50.2638893127441
2.19502679476068E-06,-50.0669898986816
2.20002685579658E-06,-49.7885894775391
2.20502691683248E-06,-49.4395217895508
2.21002697786838E-06,-49.0331993103027
2.21502703890428E-06,-48.5830345153809
2.22002709994018E-06,-48.1024436950684
2.22502716097609E-06,-47.6048431396484
2.23002722201199E-06,-47.103645324707
2.23502728304789E-06,-46.6122627258301
2.24002734408379E-06,-46.144115447998
2.24502740511969E-06,-45.7126159667969
2.25002746615559E-06,-45.3311805725098
2.25502752719149E-06,-45.0132179260254
2.2600275882274E-06,-44.7677803039551
2.2650276492633E-06,-44.548698425293
2.2700277102992E-06,-44.3432350158691
2.2750277713351E-06,-44.1554412841797
2.280027832371E-06,-43.9893608093262
2.2850278934069E-06,-43.849048614502
2.2900279544428E-06,-43.7385444641113
2.2950280154787E-06,-43.6619033813477
2.30002807651461E-06,-43.6231689453125
2.30502813755051E-06,-43.626392364502
2.31002819858641E-06,-43.6756172180176
2.31502825962231E-06,-43.7748947143555
2.32002832065821E-06,-43.9282722473145
2.32502838169411E-06,-44.1398010253906
2.33002844273001E-06,-44.4466209411621
2.33502850376592E-06,-44.8693161010742
2.34002856480182E-06,-45.387077331543
2.34502862583772E-06,-45.9790954589844
2.35002868687362E-06,-46.6245651245117
2.35502874790952E-06,-47.3026847839355
2.36002880894542E-06,-47.9926414489746
2.36502886998132E-06,-48.6736297607422
2.37002893101722E-06,-49.3248443603516
2.37502899205313E-06,-49.925479888916
2.38002905308903E-06,-50.4547271728516
2.38502911412493E-06,-50.8917808532715
2.39002917516083E-06,-51.2158317565918
2.39502923619673E-06,-51.4170036315918
2.40002929723263E-06,-51.5248756408691
2.40502935826853E-06,-51.5529479980469
2.41002941930443E-06,-51.5125617980957
2.41502948034034E-06,-51.4150810241699
2.42002954137624E-06,-51.2718505859375
2.42502960241214E-06,-51.0942306518555
2.43002966344804E-06,-50.8935699462891
2.43502972448394E-06,-50.681224822998
2.44002978551984E-06,-50.4685440063477
2.44502984655574E-06,-50.2668914794922
2.45002990759165E-06,-50.0876083374023
2.45502996862755E-06,-49.9420547485352
2.46003002966345E-06,-49.8330535888672
2.46503009069935E-06,-49.664665222168
2.47003015173525E-06,-49.4253616333008
