Trace
Swept SA
A.19.55,N9020B
508 AB2 B25 B40 B85 DP2 DP4 EP2 FS1 FS2 MPB RTL ,01
Segment,0
Number of Points,81920
Sweep Time,0.000452266667
Start Frequency,2400000000
Stop Frequency,2400000000
Average Count,0
Average Type,LogPower(Video)
RBW,3000000
RBW Filter,Gaussian
RBW Filter BW,3dB
VBW,3000000
Sweep Type,Swept
X Axis Scale,Lin
PreAmp State,Off
PreAmp Band,Low
Trigger Source,Ext1
Trigger Level,1.2
Trigger Slope,Positive
Trigger Delay,1E-06
Phase Noise Optimization,Fast
Swept If Gain,Low
FFT If Gain,Autorange
RF Coupling,AC
FFT Width,411900
Ext Ref,10000000
Input,RF
RF Calibrator,Off
Attenuation,6
Ref Level Offset,0
External Gain,0
Trace Type,Clearwrite
Detector,Normal
Trace Math,Off
Trace Math Oper1,Trace5
Trace Math Oper2,Trace6
Trace Math Offset,0
Normalize,Off
Trace Name,Trace1
X Axis Units,s
Y Axis Units,dBm
DATA
0,-86.5612869262695
5.5209007312101E-09,-86.4185028076172
1.10418014624202E-08,-86.2741928100586
1.65627021936303E-08,-86.127799987793
2.20836029248404E-08,-85.9787673950195
2.76045036560505E-08,-85.826545715332
3.31254043872606E-08,-85.6705703735352
3.86463051184707E-08,-85.5102844238281
4.41672058496808E-08,-85.3451232910156
4.96881065808909E-08,-85.1745452880859
5.5209007312101E-08,-84.9979858398438
6.07299080433111E-08,-84.8104400634766
6.62508087745212E-08,-84.6061630249023
7.17717095057313E-08,-84.3889312744141
7.72926102369414E-08,-84.1626815795898
8.28135109681515E-08,-83.9313659667969
8.83344116993616E-08,-83.6989135742188
9.38553124305717E-08,-83.4692611694336
9.93762131617818E-08,-83.2463607788086
1.04897113892992E-07,-83.0341415405273
1.10418014624202E-07,-82.836540222168
1.15938915355412E-07,-82.6575088500977
1.21459816086622E-07,-82.5009689331055
1.26980716817832E-07,-82.3616027832031
1.32501617549042E-07,-82.2223052978516
1.38022518280252E-07,-82.0860290527344
1.43543419011463E-07,-81.95654296875
1.49064319742673E-07,-81.8375854492188
1.54585220473883E-07,-81.7329177856445
1.60106121205093E-07,-81.6462783813477
1.65627021936303E-07,-81.581428527832
1.71147922667513E-07,-81.542121887207
1.76668823398723E-07,-81.532096862793
1.82189724129933E-07,-81.5551223754883
1.87710624861143E-07,-81.6149368286133
1.93231525592353E-07,-81.7284774780273
1.98752426323564E-07,-81.9272689819336
2.04273327054774E-07,-82.1956405639648
2.09794227785984E-07,-82.5151062011719
2.15315128517194E-07,-82.8671875
2.20836029248404E-07,-83.2334213256836
2.26356929979614E-07,-83.5953063964844
2.31877830710824E-07,-83.9343872070313
2.37398731442034E-07,-84.2321701049805
2.42919632173244E-07,-84.4701843261719
2.48440532904454E-07,-84.6299514770508
2.53961433635664E-07,-84.692985534668
2.59482334366875E-07,-84.6450271606445
2.65003235098085E-07,-84.4981231689453
2.70524135829295E-07,-84.2678451538086
2.76045036560505E-07,-83.968994140625
2.81565937291715E-07,-83.6163864135742
2.87086838022925E-07,-83.2248229980469
2.92607738754135E-07,-82.8091125488281
2.98128639485345E-07,-82.3840637207031
3.03649540216555E-07,-81.9644927978516
3.09170440947765E-07,-81.5652008056641
3.14691341678976E-07,-81.2009887695313
3.20212242410186E-07,-80.8866806030273
3.25733143141396E-07,-80.6243362426758
3.31254043872606E-07,-80.3616561889648
3.36774944603816E-07,-80.0961227416992
3.42295845335026E-07,-79.8336563110352
3.47816746066236E-07,-79.5801620483398
3.53337646797446E-07,-79.3415679931641
3.58858547528656E-07,-79.1237716674805
3.64379448259866E-07,-78.9326934814453
3.69900348991077E-07,-78.7742385864258
3.75421249722287E-07,-78.6543273925781
3.80942150453497E-07,-78.5788726806641
3.86463051184707E-07,-78.5537796020508
3.91983951915917E-07,-78.5859680175781
3.97504852647127E-07,-78.682746887207
4.03025753378337E-07,-78.8373489379883
4.08546654109547E-07,-79.0410690307617
4.14067554840757E-07,-79.2852096557617
4.19588455571967E-07,-79.5610733032227
4.25109356303178E-07,-79.8599472045898
4.30630257034388E-07,-80.1731414794922
4.36151157765598E-07,-80.491943359375
4.41672058496808E-07,-80.8076629638672
4.47192959228018E-07,-81.1115951538086
4.52713859959228E-07,-81.3950347900391
4.58234760690438E-07,-81.6543960571289
4.63755661421648E-07,-81.9294891357422
4.69276562152858E-07,-82.2246704101563
4.74797462884068E-07,-82.5325317382813
4.80318363615278E-07,-82.8456344604492
4.85839264346489E-07,-83.1565628051758
4.91360165077699E-07,-83.4579010009766
4.96881065808909E-07,-83.7422103881836
5.02401966540119E-07,-84.0020751953125
5.07922867271329E-07,-84.2300796508789
5.13443768002539E-07,-84.4188003540039
5.18964668733749E-07,-84.5607986450195
5.24485569464959E-07,-84.6487731933594
5.30006470196169E-07,-84.6810302734375
5.3552737092738E-07,-84.6642227172852
5.4104827165859E-07,-84.6056594848633
5.465691723898E-07,-84.5126495361328
5.5209007312101E-07,-84.3924942016602
5.5761097385222E-07,-84.2525177001953
5.6313187458343E-07,-84.1000289916992
5.6865277531464E-07,-83.9423217773438
5.7417367604585E-07,-83.7867279052734
5.7969457677706E-07,-83.6405410766602
5.8521547750827E-07,-83.5110778808594
5.90736378239481E-07,-83.404052734375
5.96257278970691E-07,-83.2900543212891
6.01778179701901E-07,-83.1599578857422
6.07299080433111E-07,-83.0195922851563
6.12819981164321E-07,-82.8748016357422
6.18340881895531E-07,-82.7314224243164
6.23861782626741E-07,-82.5952911376953
6.29382683357951E-07,-82.4722442626953
6.34903584089161E-07,-82.3681259155273
6.40424484820371E-07,-82.2887649536133
6.45945385551581E-07,-82.2400054931641
6.51466286282792E-07,-82.2276840209961
6.56987187014002E-07,-82.2573318481445
6.62508087745212E-07,-82.3199920654297
6.68028988476422E-07,-82.4084930419922
6.73549889207632E-07,-82.5220642089844
6.79070789938842E-07,-82.6599197387695
6.84591690670052E-07,-82.8212890625
6.90112591401262E-07,-83.0053863525391
6.95633492132472E-07,-83.2114410400391
7.01154392863682E-07,-83.4386749267578
7.06675293594893E-07,-83.6863098144531
7.12196194326103E-07,-83.9535675048828
7.17717095057313E-07,-84.2396621704102
7.23237995788523E-07,-84.5439224243164
7.28758896519733E-07,-84.8763122558594
7.34279797250943E-07,-85.2411880493164
7.39800697982153E-07,-85.6344604492188
7.45321598713363E-07,-86.0520401000977
7.50842499444573E-07,-86.4898223876953
7.56363400175783E-07,-86.9437255859375
7.61884300906994E-07,-87.4096527099609
7.67405201638204E-07,-87.8835144042969
7.72926102369414E-07,-88.3612060546875
7.78447003100624E-07,-88.8386459350586
7.83967903831834E-07,-89.3117370605469
7.89488804563044E-07,-89.7763900756836
7.95009705294254E-07,-90.269889831543
8.00530606025464E-07,-90.8179016113281
8.06051506756674E-07,-91.4036254882813
8.11572407487884E-07,-92.0102691650391
8.17093308219094E-07,-92.6210403442383
8.22614208950305E-07,-93.2191314697266
8.28135109681515E-07,-93.7877502441406
8.33656010412725E-07,-94.3101119995117
8.39176911143935E-07,-94.769401550293
8.44697811875145E-07,-95.1488342285156
8.50218712606355E-07,-95.4316101074219
8.55739613337565E-07,-95.6009368896484
8.61260514068775E-07,-95.6569290161133
8.66781414799985E-07,-95.6203231811523
8.72302315531195E-07,-95.5005493164063
8.77823216262406E-07,-95.3070297241211
8.83344116993616E-07,-95.0491409301758
8.88865017724826E-07,-94.7362976074219
8.94385918456036E-07,-94.3778839111328
8.99906819187246E-07,-93.9833145141602
9.05427719918456E-07,-93.5619735717773
9.10948620649666E-07,-93.1232757568359
9.16469521380876E-07,-92.6765975952148
9.21990422112086E-07,-92.2313613891602
9.27511322843296E-07,-91.7611846923828
9.33032223574507E-07,-91.2200927734375
9.38553124305717E-07,-90.621826171875
9.44074025036927E-07,-89.9809417724609
9.49594925768137E-07,-89.3120040893555
9.55115826499347E-07,-88.6295852661133
9.60636727230557E-07,-87.9482421875
9.66157627961767E-07,-87.2825546264648
9.71678528692977E-07,-86.6470794677734
9.77199429424187E-07,-86.0563888549805
9.82720330155397E-07,-85.5250396728516
9.88241230886608E-07,-85.0676116943359
9.93762131617818E-07,-84.6783447265625
9.99283032349028E-07,-84.3213348388672
1.00480393308024E-06,-83.9958877563477
1.01032483381145E-06,-83.7025756835938
1.01584573454266E-06,-83.4420013427734
1.02136663527387E-06,-83.2147521972656
1.02688753600508E-06,-83.0214233398438
1.03240843673629E-06,-82.8625869750977
1.0379293374675E-06,-82.7388534545898
1.04345023819871E-06,-82.6507949829102
1.04897113892992E-06,-82.5990142822266
1.05449203966113E-06,-82.584098815918
1.06001294039234E-06,-82.6178207397461
1.06553384112355E-06,-82.7250900268555
1.07105474185476E-06,-82.8956756591797
1.07657564258597E-06,-83.1174087524414
1.08209654331718E-06,-83.3781433105469
1.08761744404839E-06,-83.6657028198242
1.0931383447796E-06,-83.9679412841797
1.09865924551081E-06,-84.2726898193359
1.10418014624202E-06,-84.5678100585938
1.10970104697323E-06,-84.8411178588867
1.11522194770444E-06,-85.0804748535156
1.12074284843565E-06,-85.2737121582031
1.12626374916686E-06,-85.4151763916016
1.13178464989807E-06,-85.5235748291016
1.13730555062928E-06,-85.6058044433594
1.14282645136049E-06,-85.6670913696289
1.1483473520917E-06,-85.7126770019531
1.15386825282291E-06,-85.7477951049805
1.15938915355412E-06,-85.7776794433594
1.16491005428533E-06,-85.8075637817383
1.17043095501654E-06,-85.8426971435547
1.17595185574775E-06,-85.888298034668
1.18147275647896E-06,-85.9496078491211
1.18699365721017E-06,-86.0318603515625
1.19251455794138E-06,-86.137321472168
1.19803545867259E-06,-86.2548599243164
1.2035563594038E-06,-86.3820190429688
1.20907726013501E-06,-86.5178909301758
1.21459816086622E-06,-86.6615524291992
1.22011906159743E-06,-86.8121032714844
1.22563996232864E-06,-86.9686279296875
1.23116086305985E-06,-87.1302185058594
1.23668176379106E-06,-87.2959671020508
1.24220266452227E-06,-87.464958190918
1.24772356525348E-06,-87.6362915039063
1.25324446598469E-06,-87.8090438842773
1.2587653667159E-06,-87.9853210449219
1.26428626744711E-06,-88.181282043457
1.26980716817832E-06,-88.394889831543
1.27532806890953E-06,-88.6206436157227
1.28084896964074E-06,-88.8530502319336
1.28636987037195E-06,-89.0866165161133
1.29189077110316E-06,-89.3158416748047
1.29741167183437E-06,-89.5352325439453
1.30293257256558E-06,-89.7393035888672
1.30845347329679E-06,-89.9225540161133
1.313974374028E-06,-90.0794830322266
1.31949527475921E-06,-90.2046127319336
1.32501617549042E-06,-90.2890853881836
1.33053707622163E-06,-90.3057327270508
1.33605797695284E-06,-90.262565612793
1.34157887768405E-06,-90.1754531860352
1.34709977841526E-06,-90.0602493286133
1.35262067914647E-06,-89.9328384399414
1.35814157987768E-06,-89.80908203125
1.36366248060889E-06,-89.7048416137695
1.3691833813401E-06,-89.6359939575195
1.37470428207131E-06,-89.6183929443359
1.38022518280252E-06,-89.6679229736328
1.38574608353373E-06,-89.8004379272461
1.39126698426494E-06,-90.0338134765625
1.39678788499615E-06,-90.3966751098633
1.40230878572736E-06,-90.8739547729492
1.40782968645858E-06,-91.4399719238281
1.41335058718979E-06,-92.0690536499023
1.418871487921E-06,-92.7355270385742
1.42439238865221E-06,-93.4137268066406
1.42991328938342E-06,-94.0779724121094
1.43543419011463E-06,-94.7025909423828
1.44095509084584E-06,-95.2619171142578
1.44647599157705E-06,-95.7302627563477
1.45199689230826E-06,-96.0819702148438
1.45751779303947E-06,-96.2914123535156
1.46303869377068E-06,-96.3478317260742
1.46855959450189E-06,-96.2733764648438
1.4740804952331E-06,-96.0944900512695
1.47960139596431E-06,-95.8376083374023
1.48512229669552E-06,-95.529167175293
1.49064319742673E-06,-95.1956253051758
1.49616409815794E-06,-94.863410949707
1.50168499888915E-06,-94.5589752197266
1.50720589962036E-06,-94.3087539672852
1.51272680035157E-06,-94.1391906738281
1.51824770108278E-06,-94.0767288208008
1.52376860181399E-06,-94.1486434936523
1.5292895025452E-06,-94.3968811035156
1.53481040327641E-06,-94.8049926757813
1.54033130400762E-06,-95.3337326049805
1.54585220473883E-06,-95.9438629150391
1.55137310547004E-06,-96.5961380004883
1.55689400620125E-06,-97.2513122558594
1.56241490693246E-06,-97.8701400756836
1.56793580766367E-06,-98.4133911132813
1.57345670839488E-06,-98.8418045043945
1.57897760912609E-06,-99.1161422729492
1.5844985098573E-06,-99.1971588134766
1.59001941058851E-06,-99.0458221435547
1.59554031131972E-06,-98.656623840332
1.60106121205093E-06,-98.0647354125977
1.60658211278214E-06,-97.3021926879883
1.61210301351335E-06,-96.4010238647461
1.61762391424456E-06,-95.3932723999023
1.62314481497577E-06,-94.3109893798828
1.62866571570698E-06,-93.1861953735352
1.63418661643819E-06,-92.0509414672852
1.6397075171694E-06,-90.9372634887695
1.64522841790061E-06,-89.8772048950195
1.65074931863182E-06,-88.9027938842773
1.65627021936303E-06,-88.0459747314453
1.66179112009424E-06,-87.2578125
1.66731202082545E-06,-86.4803619384766
1.67283292155666E-06,-85.7165756225586
1.67835382228787E-06,-84.9694213867188
1.68387472301908E-06,-84.2418670654297
1.68939562375029E-06,-83.5368804931641
1.6949165244815E-06,-82.8574142456055
1.70043742521271E-06,-82.2064361572266
1.70595832594392E-06,-81.5869140625
1.71147922667513E-06,-81.0018081665039
1.71700012740634E-06,-80.4540786743164
1.72252102813755E-06,-79.9467010498047
1.72804192886876E-06,-79.4768753051758
1.73356282959997E-06,-79.0389099121094
1.73908373033118E-06,-78.6326904296875
1.74460463106239E-06,-78.2580871582031
1.7501255317936E-06,-77.9149780273438
1.75564643252481E-06,-77.6032562255859
1.76116733325602E-06,-77.3227844238281
1.76668823398723E-06,-77.0734558105469
1.77220913471844E-06,-76.8551406860352
1.77773003544965E-06,-76.667724609375
1.78325093618086E-06,-76.5110778808594
1.78877183691207E-06,-76.3851013183594
1.79429273764328E-06,-76.2914962768555
1.79981363837449E-06,-76.2323760986328
1.8053345391057E-06,-76.206657409668
1.81085543983691E-06,-76.2132110595703
1.81637634056812E-06,-76.2509384155273
1.82189724129933E-06,-76.3187026977539
1.82741814203054E-06,-76.4153900146484
1.83293904276175E-06,-76.5398864746094
1.83845994349296E-06,-76.6910705566406
1.84398084422417E-06,-76.8678283691406
1.84950174495538E-06,-77.0690307617188
1.85502264568659E-06,-77.2935791015625
1.8605435464178E-06,-77.5540237426758
1.86606444714901E-06,-77.8716659545898
1.87158534788022E-06,-78.2375106811523
1.87710624861143E-06,-78.6417465209961
1.88262714934264E-06,-79.0745849609375
1.88814805007385E-06,-79.5262298583984
1.89366895080506E-06,-79.9868850708008
1.89918985153627E-06,-80.4467468261719
1.90471075226748E-06,-80.8960189819336
1.91023165299869E-06,-81.3249130249023
1.9157525537299E-06,-81.7236251831055
1.92127345446111E-06,-82.0823593139648
1.92679435519232E-06,-82.3978576660156
1.93231525592353E-06,-82.6843872070313
1.93783615665474E-06,-82.9472961425781
1.94335705738595E-06,-83.1912460327148
1.94887795811716E-06,-83.4209213256836
1.95439885884837E-06,-83.640983581543
1.95991975957958E-06,-83.8561172485352
1.9654406603108E-06,-84.0709838867188
1.970961561042E-06,-84.2902679443359
1.97648246177322E-06,-84.5186309814453
1.98200336250443E-06,-84.7607574462891
1.98752426323564E-06,-85.0213165283203
1.99304516396685E-06,-85.3109130859375
1.99856606469806E-06,-85.6460800170898
2.00408696542927E-06,-86.016357421875
2.00960786616048E-06,-86.4093780517578
2.01512876689169E-06,-86.8127975463867
2.0206496676229E-06,-87.2142486572266
2.02617056835411E-06,-87.6013641357422
2.03169146908532E-06,-87.961799621582
2.03721236981653E-06,-88.2831802368164
2.04273327054774E-06,-88.5531463623047
2.04825417127895E-06,-88.7593460083008
2.05377507201016E-06,-88.8894195556641
2.05929597274137E-06,-88.9346466064453
2.06481687347258E-06,-88.9070587158203
2.07033777420379E-06,-88.8159484863281
2.075858674935E-06,-88.6693725585938
2.08137957566621E-06,-88.4753875732422
2.08690047639742E-06,-88.2420425415039
2.09242137712863E-06,-87.9773788452148
2.09794227785984E-06,-87.6894607543945
2.10346317859105E-06,-87.3863296508789
2.10898407932226E-06,-87.0760498046875
2.11450498005347E-06,-86.7666549682617
2.12002588078468E-06,-86.4662094116211
2.12554678151589E-06,-86.1753845214844
2.1310676822471E-06,-85.8588027954102
2.13658858297831E-06,-85.5156860351563
2.14210948370952E-06,-85.1520309448242
2.14763038444073E-06,-84.7738342285156
2.15315128517194E-06,-84.3870697021484
2.15867218590315E-06,-83.9977340698242
2.16419308663436E-06,-83.61181640625
2.16971398736557E-06,-83.2353057861328
2.17523488809678E-06,-82.8741912841797
2.18075578882799E-06,-82.5344619750977
2.1862766895592E-06,-82.2221069335938
2.19179759029041E-06,-81.9387435913086
2.19731849102162E-06,-81.6556243896484
2.20283939175283E-06,-81.3708648681641
2.20836029248404E-06,-81.0899810791016
2.21388119321525E-06,-80.818473815918
2.21940209394646E-06,-80.5618743896484
2.22492299467767E-06,-80.32568359375
2.23044389540888E-06,-80.1154251098633
2.23596479614009E-06,-79.9366073608398
2.2414856968713E-06,-79.7947540283203
2.24700659760251E-06,-79.6953659057617
2.25252749833372E-06,-79.6439666748047
2.25804839906493E-06,-79.6455230712891
2.26356929979614E-06,-79.6965103149414
2.26909020052735E-06,-79.7921371459961
2.27461110125856E-06,-79.9287185668945
2.28013200198977E-06,-80.1026000976563
2.28565290272098E-06,-80.3100891113281
2.29117380345219E-06,-80.5475311279297
2.2966947041834E-06,-80.8112487792969
2.30221560491461E-06,-81.0975570678711
2.30773650564582E-06,-81.4028015136719
2.31325740637703E-06,-81.7232971191406
2.31877830710824E-06,-82.0553741455078
2.32429920783945E-06,-82.3999710083008
2.32982010857066E-06,-82.8282165527344
2.33534100930187E-06,-83.3461303710938
2.34086191003308E-06,-83.9283218383789
2.34638281076429E-06,-84.5494155883789
2.3519037114955E-06,-85.1840209960938
2.35742461222671E-06,-85.806755065918
2.36294551295792E-06,-86.3922348022461
2.36846641368913E-06,-86.9150848388672
2.37398731442034E-06,-87.3499069213867
2.37950821515155E-06,-87.6713256835938
2.38502911588276E-06,-87.8539581298828
2.39055001661397E-06,-87.8724136352539
2.39607091734518E-06,-87.7135391235352
2.40159181807639E-06,-87.3981552124023
2.4071127188076E-06,-86.9526824951172
2.41263361953881E-06,-86.4034957885742
2.41815452027002E-06,-85.7770233154297
2.42367542100123E-06,-85.0996475219727
2.42919632173244E-06,-84.3977813720703
2.43471722246365E-06,-83.6978149414063
2.44023812319486E-06,-83.0261611938477
2.44575902392607E-06,-82.4092178344727
2.45127992465728E-06,-81.8733825683594
2.45680082538849E-06,-81.4441375732422
2.4623217261197E-06,-81.0768127441406
2.46784262685091E-06,-80.7344207763672
2.47336352758212E-06,-80.4166946411133
2.47888442831333E-06,-80.1233673095703
2.48440532904454E-06,-79.8541717529297
2.48992622977575E-06,-79.6088333129883
2.49544713050696E-06,-79.3870849609375
2.50096803123817E-06,-79.1886520385742
2.50648893196938E-06,-79.0132751464844
2.51200983270059E-06,-78.8606872558594
2.5175307334318E-06,-78.7306060791016
2.52305163416301E-06,-78.6228103637695
2.52857253489422E-06,-78.5504760742188
2.53409343562543E-06,-78.519905090332
2.53961433635665E-06,-78.5248107910156
2.54513523708785E-06,-78.5588836669922
2.55065613781907E-06,-78.6158294677734
2.55617703855028E-06,-78.6893615722656
2.56169793928149E-06,-78.7731704711914
2.5672188400127E-06,-78.8609619140625
2.57273974074391E-06,-78.9464492797852
2.57826064147512E-06,-79.0233154296875
2.58378154220633E-06,-79.0852813720703
2.58930244293754E-06,-79.1260452270508
2.59482334366875E-06,-79.1558074951172
2.60034424439996E-06,-79.1889495849609
2.60586514513117E-06,-79.2236175537109
2.61138604586238E-06,-79.2579574584961
2.61690694659359E-06,-79.2901000976563
2.6224278473248E-06,-79.3181991577148
2.62794874805601E-06,-79.3403854370117
2.63346964878722E-06,-79.3547973632813
2.63899054951843E-06,-79.3595886230469
2.64451145024964E-06,-79.3528823852539
2.65003235098085E-06,-79.3328323364258
2.65555325171206E-06,-79.2975769042969
2.66107415244327E-06,-79.2413787841797
2.66659505317448E-06,-79.1608123779297
2.67211595390569E-06,-79.0605316162109
2.6776368546369E-06,-78.9452285766602
2.68315775536811E-06,-78.8196105957031
2.68867865609932E-06,-78.6883697509766
2.69419955683053E-06,-78.5562057495117
2.69972045756174E-06,-78.4278259277344
2.70524135829295E-06,-78.3079147338867
2.71076225902416E-06,-78.2011947631836
2.71628315975537E-06,-78.1123428344727
2.72180406048658E-06,-78.0460662841797
