Trace
Swept SA
A.19.55,N9020B
508 AB2 B25 B40 B85 DP2 DP4 EP2 FS1 FS2 MPB RTL ,01
Segment,0
Number of Points,81920
Sweep Time,0.000452266667
Start Frequency,2400000000
Stop Frequency,2400000000
Average Count,0
Average Type,LogPower(Video)
RBW,3000000
RBW Filter,Gaussian
RBW Filter BW,3dB
VBW,3000000
Sweep Type,Swept
X Axis Scale,Lin
PreAmp State,Off
PreAmp Band,Low
Trigger Source,Ext1
Trigger Level,1.2
Trigger Slope,Positive
Trigger Delay,1E-06
Phase Noise Optimization,Fast
Swept If Gain,Low
FFT If Gain,Autorange
RF Coupling,AC
FFT Width,411900
Ext Ref,10000000
Input,RF
RF Calibrator,Off
Attenuation,6
Ref Level Offset,0
External Gain,0
Trace Type,Clearwrite
Detector,Normal
Trace Math,Off
Trace Math Oper1,Trace5
Trace Math Oper2,Trace6
Trace Math Offset,0
Normalize,Off
Trace Name,Trace1
X Axis Units,s
Y Axis Units,dBm
DATA
0,-76.2794036865234
5.5209007312101E-09,-76.2161407470703
1.10418014624202E-08,-76.0182952880859
1.65627021936303E-08,-75.7128677368164
2.20836029248404E-08,-75.3268508911133
2.76045036560505E-08,-74.8872451782227
3.31254043872606E-08,-74.4210586547852
3.86463051184707E-08,-73.9552917480469
4.41672058496808E-08,-73.5169525146484
4.96881065808909E-08,-73.1330261230469
5.5209007312101E-08,-72.8305282592773
6.07299080433111E-08,-72.5937271118164
6.62508087745212E-08,-72.3601150512695
7.17717095057313E-08,-72.1290283203125
7.72926102369414E-08,-71.9010620117188
8.28135109681515E-08,-71.6768112182617
8.83344116993616E-08,-71.4568634033203
9.38553124305717E-08,-71.2418060302734
9.93762131617818E-08,-71.0322265625
1.04897113892992E-07,-70.8287353515625
1.10418014624202E-07,-70.6319046020508
1.15938915355412E-07,-70.4423294067383
1.21459816086622E-07,-70.2606048583984
1.26980716817832E-07,-70.0857543945313
1.32501617549042E-07,-69.9149169921875
1.38022518280252E-07,-69.748664855957
1.43543419011463E-07,-69.5877151489258
1.49064319742673E-07,-69.4327774047852
1.54585220473883E-07,-69.2845687866211
1.60106121205093E-07,-69.1438064575195
1.65627021936303E-07,-69.0111923217773
1.71147922667513E-07,-68.887451171875
1.76668823398723E-07,-68.7733001708984
1.82189724129933E-07,-68.6694412231445
1.87710624861143E-07,-68.5765914916992
1.93231525592353E-07,-68.4943923950195
1.98752426323564E-07,-68.4202651977539
2.04273327054774E-07,-68.354362487793
2.09794227785984E-07,-68.2970581054688
2.15315128517194E-07,-68.2486953735352
2.20836029248404E-07,-68.2096481323242
2.26356929979614E-07,-68.1802673339844
2.31877830710824E-07,-68.1609115600586
2.37398731442034E-07,-68.1519470214844
2.42919632173244E-07,-68.1537246704102
2.48440532904454E-07,-68.1666107177734
2.53961433635664E-07,-68.1909637451172
2.59482334366875E-07,-68.2262496948242
2.65003235098085E-07,-68.2696380615234
2.70524135829295E-07,-68.3216094970703
2.76045036560505E-07,-68.3829650878906
2.81565937291715E-07,-68.4544982910156
2.87086838022925E-07,-68.5370407104492
2.92607738754135E-07,-68.6313781738281
2.98128639485345E-07,-68.7383193969727
3.03649540216555E-07,-68.8586807250977
3.09170440947765E-07,-68.9932632446289
3.14691341678976E-07,-69.1428756713867
3.20212242410186E-07,-69.3083190917969
3.25733143141396E-07,-69.4931182861328
3.31254043872606E-07,-69.7090911865234
3.36774944603816E-07,-69.9527206420898
3.42295845335026E-07,-70.2183990478516
3.47816746066236E-07,-70.5005111694336
3.53337646797446E-07,-70.79345703125
3.58858547528656E-07,-71.0916290283203
3.64379448259866E-07,-71.3894195556641
3.69900348991077E-07,-71.6812286376953
3.75421249722287E-07,-71.9614486694336
3.80942150453497E-07,-72.2244720458984
3.86463051184707E-07,-72.4646911621094
3.91983951915917E-07,-72.6793518066406
3.97504852647127E-07,-72.8838043212891
4.03025753378337E-07,-73.0808410644531
4.08546654109547E-07,-73.2699279785156
4.14067554840757E-07,-73.4505081176758
4.19588455571967E-07,-73.6220321655273
4.25109356303178E-07,-73.7839736938477
4.30630257034388E-07,-73.9357681274414
4.36151157765598E-07,-74.0768890380859
4.41672058496808E-07,-74.2067794799805
4.47192959228018E-07,-74.3248977661133
4.52713859959228E-07,-74.4306945800781
4.58234760690438E-07,-74.5230560302734
4.63755661421648E-07,-74.5969848632813
4.69276562152858E-07,-74.6534118652344
4.74797462884068E-07,-74.69482421875
4.80318363615278E-07,-74.7236862182617
4.85839264346489E-07,-74.7424621582031
4.91360165077699E-07,-74.7536239624023
4.96881065808909E-07,-74.759651184082
5.02401966540119E-07,-74.7630157470703
5.07922867271329E-07,-74.7661743164063
5.13443768002539E-07,-74.771598815918
5.18964668733749E-07,-74.7817764282227
5.24485569464959E-07,-74.7997665405273
5.30006470196169E-07,-74.8340911865234
5.3552737092738E-07,-74.8824920654297
5.4104827165859E-07,-74.9393692016602
5.465691723898E-07,-74.999137878418
5.5209007312101E-07,-75.0561904907227
5.5761097385222E-07,-75.1049499511719
5.6313187458343E-07,-75.1398162841797
5.6865277531464E-07,-75.1552047729492
5.7417367604585E-07,-75.1455154418945
5.7969457677706E-07,-75.1051559448242
5.8521547750827E-07,-75.0285415649414
5.90736378239481E-07,-74.9094161987305
5.96257278970691E-07,-74.7315063476563
6.01778179701901E-07,-74.4983520507813
6.07299080433111E-07,-74.2213439941406
6.12819981164321E-07,-73.9118804931641
6.18340881895531E-07,-73.5813598632813
6.23861782626741E-07,-73.2411880493164
6.29382683357951E-07,-72.9027709960938
6.34903584089161E-07,-72.5774917602539
6.40424484820371E-07,-72.2767562866211
6.45945385551581E-07,-72.0119705200195
6.51466286282792E-07,-71.7945251464844
6.56987187014002E-07,-71.6352844238281
6.62508087745212E-07,-71.5184555053711
6.68028988476422E-07,-71.4303894042969
6.73549889207632E-07,-71.3688430786133
6.79070789938842E-07,-71.3315505981445
6.84591690670052E-07,-71.3162612915039
6.90112591401262E-07,-71.3207015991211
6.95633492132472E-07,-71.3426208496094
7.01154392863682E-07,-71.3797607421875
7.06675293594893E-07,-71.4298553466797
7.12196194326103E-07,-71.4906616210938
7.17717095057313E-07,-71.5599060058594
7.23237995788523E-07,-71.6355438232422
7.28758896519733E-07,-71.7422180175781
7.34279797250943E-07,-71.890998840332
7.39800697982153E-07,-72.0720291137695
7.45321598713363E-07,-72.2754669189453
7.50842499444573E-07,-72.4914474487305
7.56363400175783E-07,-72.7101287841797
7.61884300906994E-07,-72.9216537475586
7.67405201638204E-07,-73.1161651611328
7.72926102369414E-07,-73.283805847168
7.78447003100624E-07,-73.4147415161133
7.83967903831834E-07,-73.4990997314453
7.89488804563044E-07,-73.5270309448242
7.95009705294254E-07,-73.4985275268555
8.00530606025464E-07,-73.4239654541016
8.06051506756674E-07,-73.3098754882813
8.11572407487884E-07,-73.1627883911133
8.17093308219094E-07,-72.9892272949219
8.22614208950305E-07,-72.7957229614258
8.28135109681515E-07,-72.5887985229492
8.33656010412725E-07,-72.3749923706055
8.39176911143935E-07,-72.1608200073242
8.44697811875145E-07,-71.9528198242188
8.50218712606355E-07,-71.7575073242188
8.55739613337565E-07,-71.581413269043
8.61260514068775E-07,-71.4053573608398
8.66781414799985E-07,-71.2047729492188
8.72302315531195E-07,-70.9875106811523
8.77823216262406E-07,-70.7614974975586
8.83344116993616E-07,-70.5346832275391
8.88865017724826E-07,-70.3150024414063
8.94385918456036E-07,-70.1103897094727
8.99906819187246E-07,-69.9287872314453
9.05427719918456E-07,-69.7781372070313
9.10948620649666E-07,-69.666374206543
9.16469521380876E-07,-69.6014404296875
9.21990422112086E-07,-69.5912704467773
9.27511322843296E-07,-69.6498947143555
9.33032223574507E-07,-69.7827224731445
9.38553124305717E-07,-69.9764556884766
9.44074025036927E-07,-70.2176132202148
9.49594925768137E-07,-70.4926910400391
9.55115826499347E-07,-70.7881851196289
9.60636727230557E-07,-71.0906143188477
9.66157627961767E-07,-71.386474609375
9.71678528692977E-07,-71.6622695922852
9.77199429424187E-07,-71.9045104980469
9.82720330155397E-07,-72.0996932983398
9.88241230886608E-07,-72.2343292236328
9.93762131617818E-07,-72.3092422485352
9.99283032349028E-07,-72.3502197265625
1.00480393308024E-06,-72.3613891601563
1.01032483381145E-06,-72.3460083007813
1.01584573454266E-06,-72.3073425292969
1.02136663527387E-06,-72.2486572265625
1.02688753600508E-06,-72.1732177734375
1.03240843673629E-06,-72.0842819213867
1.0379293374675E-06,-71.9851150512695
1.04345023819871E-06,-71.8789749145508
1.04897113892992E-06,-71.7691345214844
1.05449203966113E-06,-71.6588516235352
1.06001294039234E-06,-71.5407409667969
1.06553384112355E-06,-71.3909225463867
1.07105474185476E-06,-71.2149353027344
1.07657564258597E-06,-71.0200500488281
1.08209654331718E-06,-70.8135452270508
1.08761744404839E-06,-70.602668762207
1.0931383447796E-06,-70.3946990966797
1.09865924551081E-06,-70.1968994140625
1.10418014624202E-06,-70.0165405273438
1.10970104697323E-06,-69.8608779907227
1.11522194770444E-06,-69.7371826171875
1.12074284843565E-06,-69.6527252197266
1.12626374916686E-06,-69.6121978759766
1.13178464989807E-06,-69.6082992553711
1.13730555062928E-06,-69.6357040405273
1.14282645136049E-06,-69.6896057128906
1.1483473520917E-06,-69.7652053833008
1.15386825282291E-06,-69.8577041625977
1.15938915355412E-06,-69.9623107910156
1.16491005428533E-06,-70.0742111206055
1.17043095501654E-06,-70.1886291503906
1.17595185574775E-06,-70.3007507324219
1.18147275647896E-06,-70.4057769775391
1.18699365721017E-06,-70.4989166259766
1.19251455794138E-06,-70.5786514282227
1.19803545867259E-06,-70.6573867797852
1.2035563594038E-06,-70.7368392944336
1.20907726013501E-06,-70.8169326782227
1.21459816086622E-06,-70.8976058959961
1.22011906159743E-06,-70.9787826538086
1.22563996232864E-06,-71.0604019165039
1.23116086305985E-06,-71.1423873901367
1.23668176379106E-06,-71.2246780395508
1.24220266452227E-06,-71.3071899414063
1.24772356525348E-06,-71.3898773193359
1.25324446598469E-06,-71.4726486206055
1.2587653667159E-06,-71.5499877929688
1.26428626744711E-06,-71.5922012329102
1.26980716817832E-06,-71.6047058105469
1.27532806890953E-06,-71.5993347167969
1.28084896964074E-06,-71.5879058837891
1.28636987037195E-06,-71.5822448730469
1.29189077110316E-06,-71.5941848754883
1.29741167183437E-06,-71.6355438232422
1.30293257256558E-06,-71.7181549072266
1.30845347329679E-06,-71.8538360595703
1.313974374028E-06,-72.0544128417969
1.31949527475921E-06,-72.3317108154297
1.32501617549042E-06,-72.7044219970703
1.33053707622163E-06,-73.2285079956055
1.33605797695284E-06,-73.8870010375977
1.34157887768405E-06,-74.6467437744141
1.34709977841526E-06,-75.4745864868164
1.35262067914647E-06,-76.3373641967773
1.35814157987768E-06,-77.2019195556641
1.36366248060889E-06,-78.0351028442383
1.3691833813401E-06,-78.8037490844727
1.37470428207131E-06,-79.4747009277344
1.38022518280252E-06,-80.0148086547852
1.38574608353373E-06,-80.3909072875977
1.39126698426494E-06,-80.5719223022461
1.39678788499615E-06,-80.5684432983398
1.40230878572736E-06,-80.4099044799805
1.40782968645858E-06,-80.1221694946289
1.41335058718979E-06,-79.7311096191406
1.418871487921E-06,-79.2625885009766
1.42439238865221E-06,-78.7424697875977
1.42991328938342E-06,-78.1966171264648
1.43543419011463E-06,-77.6509017944336
1.44095509084584E-06,-77.1311798095703
1.44647599157705E-06,-76.6633377075195
1.45199689230826E-06,-76.2732162475586
1.45751779303947E-06,-75.9833297729492
1.46303869377068E-06,-75.7449645996094
1.46855959450189E-06,-75.5320434570313
1.4740804952331E-06,-75.3420486450195
1.47960139596431E-06,-75.1724853515625
1.48512229669552E-06,-75.0208435058594
1.49064319742673E-06,-74.8846054077148
1.49616409815794E-06,-74.7612762451172
1.50168499888915E-06,-74.6483383178711
1.50720589962036E-06,-74.5432815551758
1.51272680035157E-06,-74.443603515625
1.51824770108278E-06,-74.3468017578125
1.52376860181399E-06,-74.2514190673828
1.5292895025452E-06,-74.1916427612305
1.53481040327641E-06,-74.1757354736328
1.54033130400762E-06,-74.1912155151367
1.54585220473883E-06,-74.2255630493164
1.55137310547004E-06,-74.2662963867188
1.55689400620125E-06,-74.3009033203125
1.56241490693246E-06,-74.31689453125
1.56793580766367E-06,-74.3017654418945
1.57345670839488E-06,-74.2430191040039
1.57897760912609E-06,-74.1281509399414
1.5844985098573E-06,-73.9446716308594
1.59001941058851E-06,-73.6801681518555
1.59554031131972E-06,-73.3350524902344
1.60106121205093E-06,-72.9212265014648
1.60658211278214E-06,-72.4478912353516
1.61210301351335E-06,-71.9242630004883
1.61762391424456E-06,-71.3595581054688
1.62314481497577E-06,-70.7629928588867
1.62866571570698E-06,-70.1437759399414
1.63418661643819E-06,-69.5111236572266
1.6397075171694E-06,-68.8742446899414
1.64522841790061E-06,-68.2423629760742
1.65074931863182E-06,-67.6246719360352
1.65627021936303E-06,-67.0303649902344
1.66179112009424E-06,-66.4342422485352
1.66731202082545E-06,-65.8139495849609
1.67283292155666E-06,-65.1759719848633
1.67835382228787E-06,-64.5267944335938
1.68387472301908E-06,-63.8728942871094
1.68939562375029E-06,-63.2207527160645
1.6949165244815E-06,-62.5768547058105
1.70043742521271E-06,-61.947681427002
1.70595832594392E-06,-61.3397178649902
1.71147922667513E-06,-60.7594413757324
1.71700012740634E-06,-60.2133407592773
1.72252102813755E-06,-59.707893371582
1.72804192886876E-06,-59.2333717346191
1.73356282959997E-06,-58.7745056152344
1.73908373033118E-06,-58.3331108093262
1.74460463106239E-06,-57.9110450744629
1.7501255317936E-06,-57.5101509094238
1.75564643252481E-06,-57.1322784423828
1.76116733325602E-06,-56.7792778015137
1.76668823398723E-06,-56.4529914855957
1.77220913471844E-06,-56.1552734375
1.77773003544965E-06,-55.8879699707031
1.78325093618086E-06,-55.6529273986816
1.78877183691207E-06,-55.4519958496094
1.79429273764328E-06,-55.2817039489746
1.79981363837449E-06,-55.1355628967285
1.8053345391057E-06,-55.0149688720703
1.81085543983691E-06,-54.9214134216309
1.81637634056812E-06,-54.8563842773438
1.82189724129933E-06,-54.821361541748
1.82741814203054E-06,-54.8178329467773
1.83293904276175E-06,-54.8472900390625
1.83845994349296E-06,-54.9112129211426
1.84398084422417E-06,-55.0110893249512
1.84950174495538E-06,-55.1484107971191
1.85502264568659E-06,-55.3246574401855
1.8605435464178E-06,-55.5371246337891
1.86606444714901E-06,-55.7791023254395
1.87158534788022E-06,-56.0520477294922
1.87710624861143E-06,-56.3576507568359
1.88262714934264E-06,-56.6976051330566
1.88814805007385E-06,-57.073600769043
1.89366895080506E-06,-57.4873275756836
1.89918985153627E-06,-57.9404754638672
1.90471075226748E-06,-58.4347305297852
1.91023165299869E-06,-58.9717903137207
1.9157525537299E-06,-59.5533447265625
1.92127345446111E-06,-60.181079864502
1.92679435519232E-06,-60.8757820129395
1.93231525592353E-06,-61.6769409179688
1.93783615665474E-06,-62.5667037963867
1.94335705738595E-06,-63.5245018005371
1.94887795811716E-06,-64.5297698974609
1.95439885884837E-06,-65.5619277954102
1.95991975957958E-06,-66.6004180908203
1.9654406603108E-06,-67.6246719360352
1.970961561042E-06,-68.6141052246094
1.97648246177322E-06,-69.5481643676758
1.98200336250443E-06,-70.4062728881836
1.98752426323564E-06,-71.1678695678711
1.99304516396685E-06,-71.824089050293
1.99856606469806E-06,-72.4067916870117
2.00408696542927E-06,-72.9273300170898
2.00960786616048E-06,-73.3945465087891
2.01512876689169E-06,-73.8172607421875
2.0206496676229E-06,-74.2043075561523
2.02617056835411E-06,-74.5645141601563
2.03169146908532E-06,-74.9067077636719
2.03721236981653E-06,-75.2397155761719
2.04273327054774E-06,-75.5723724365234
2.04825417127895E-06,-75.9134979248047
2.05377507201016E-06,-76.2719268798828
2.05929597274137E-06,-76.6625289916992
2.06481687347258E-06,-77.1087188720703
2.07033777420379E-06,-77.5953979492188
2.075858674935E-06,-78.1036148071289
2.08137957566621E-06,-78.6144256591797
2.08690047639742E-06,-79.1088943481445
2.09242137712863E-06,-79.5680847167969
2.09794227785984E-06,-79.9730377197266
2.10346317859105E-06,-80.304817199707
2.10898407932226E-06,-80.5444869995117
2.11450498005347E-06,-80.6731033325195
2.12002588078468E-06,-80.6717147827148
2.12554678151589E-06,-80.5204086303711
2.1310676822471E-06,-80.210334777832
2.13658858297831E-06,-79.7614898681641
2.14210948370952E-06,-79.1964492797852
2.14763038444073E-06,-78.5377807617188
2.15315128517194E-06,-77.8080596923828
2.15867218590315E-06,-77.0298461914063
2.16419308663436E-06,-76.225715637207
2.16971398736557E-06,-75.4182357788086
2.17523488809678E-06,-74.6299819946289
2.18075578882799E-06,-73.8835220336914
2.1862766895592E-06,-73.2014236450195
2.19179759029041E-06,-72.5946426391602
2.19731849102162E-06,-71.9885787963867
2.20283939175283E-06,-71.3718185424805
2.20836029248404E-06,-70.7519073486328
2.21388119321525E-06,-70.1363906860352
2.21940209394646E-06,-69.532829284668
2.22492299467767E-06,-68.9487533569336
2.23044389540888E-06,-68.3917236328125
2.23596479614009E-06,-67.8692855834961
2.2414856968713E-06,-67.3889846801758
2.24700659760251E-06,-66.958366394043
2.25252749833372E-06,-66.5849914550781
2.25804839906493E-06,-66.272590637207
2.26356929979614E-06,-65.9854736328125
2.26909020052735E-06,-65.7186126708984
2.27461110125856E-06,-65.479133605957
2.28013200198977E-06,-65.2741546630859
2.28565290272098E-06,-65.1107864379883
2.29117380345219E-06,-64.9961547851563
2.2966947041834E-06,-64.937370300293
2.30221560491461E-06,-64.9415512084961
2.30773650564582E-06,-65.0158157348633
2.31325740637703E-06,-65.1672821044922
2.31877830710824E-06,-65.4030685424805
2.32429920783945E-06,-65.7346954345703
2.32982010857066E-06,-66.2349853515625
2.33534100930187E-06,-66.9004135131836
2.34086191003308E-06,-67.6955108642578
2.34638281076429E-06,-68.5848159790039
2.3519037114955E-06,-69.5328674316406
2.35742461222671E-06,-70.5042037963867
2.36294551295792E-06,-71.4633560180664
2.36846641368913E-06,-72.3748626708984
2.37398731442034E-06,-73.2032623291016
2.37950821515155E-06,-73.9130935668945
2.38502911588276E-06,-74.4688873291016
2.39055001661397E-06,-74.8366928100586
2.39607091734518E-06,-75.0409545898438
2.40159181807639E-06,-75.1169967651367
2.4071127188076E-06,-75.0837478637695
2.41263361953881E-06,-74.9601516723633
2.41815452027002E-06,-74.7651596069336
2.42367542100123E-06,-74.517707824707
2.42919632173244E-06,-74.2367401123047
2.43471722246365E-06,-73.9412002563477
2.44023812319486E-06,-73.650032043457
2.44575902392607E-06,-73.3821716308594
2.45127992465728E-06,-73.1565704345703
2.45680082538849E-06,-72.9909820556641
2.4623217261197E-06,-72.820426940918
2.46784262685091E-06,-72.6091384887695
2.47336352758212E-06,-72.3716812133789
2.47888442831333E-06,-72.1226043701172
2.48440532904454E-06,-71.8764877319336
2.48992622977575E-06,-71.6478729248047
2.49544713050696E-06,-71.4513244628906
2.50096803123817E-06,-71.3013916015625
2.50648893196938E-06,-71.2126541137695
2.51200983270059E-06,-71.1996536254883
2.5175307334318E-06,-71.2769546508789
2.52305163416301E-06,-71.4591827392578
2.52857253489422E-06,-71.7795257568359
2.53409343562543E-06,-72.238639831543
2.53961433635665E-06,-72.8099975585938
2.54513523708785E-06,-73.4670486450195
2.55065613781907E-06,-74.1832580566406
2.55617703855028E-06,-74.9320831298828
2.56169793928149E-06,-75.6869964599609
2.5672188400127E-06,-76.4214401245117
2.57273974074391E-06,-77.10888671875
2.57826064147512E-06,-77.7227935791016
2.58378154220633E-06,-78.2366256713867
2.58930244293754E-06,-78.6238327026367
2.59482334366875E-06,-78.8883743286133
2.60034424439996E-06,-79.0631332397461
2.60586514513117E-06,-79.1622314453125
2.61138604586238E-06,-79.1997680664063
2.61690694659359E-06,-79.1898498535156
2.6224278473248E-06,-79.1465835571289
2.62794874805601E-06,-79.0840759277344
2.63346964878722E-06,-79.0164260864258
2.63899054951843E-06,-78.9577484130859
2.64451145024964E-06,-78.9221496582031
2.65003235098085E-06,-78.9237213134766
2.65555325171206E-06,-78.9765853881836
2.66107415244327E-06,-79.0768661499023
2.66659505317448E-06,-79.2016754150391
2.67211595390569E-06,-79.3462295532227
2.6776368546369E-06,-79.5059051513672
2.68315775536811E-06,-79.6760711669922
2.68867865609932E-06,-79.8521194458008
2.69419955683053E-06,-80.029411315918
2.69972045756174E-06,-80.2033309936523
2.70524135829295E-06,-80.3692626953125
2.71076225902416E-06,-80.5225677490234
2.71628315975537E-06,-80.6586380004883
2.72180406048658E-06,-80.7728424072266
