Trace
Swept SA
A.19.55,N9020B
508 AB2 B25 B40 B85 DP2 DP4 EP2 FS1 FS2 MPB RTL ,01
Segment,0
Number of Points,81920
Sweep Time,0.0004096
Start Frequency,2400000000
Stop Frequency,2400000000
Average Count,0
Average Type,LogPower(Video)
RBW,3000000
RBW Filter,Gaussian
RBW Filter BW,3dB
VBW,3000000
Sweep Type,Swept
X Axis Scale,Lin
PreAmp State,Off
PreAmp Band,Low
Trigger Source,Ext1
Trigger Level,1.2
Trigger Slope,Positive
Trigger Delay,1E-06
Phase Noise Optimization,Fast
Swept If Gain,Low
FFT If Gain,Autorange
RF Coupling,AC
FFT Width,411900
Ext Ref,10000000
Input,RF
RF Calibrator,Off
Attenuation,6
Ref Level Offset,0
External Gain,0
Trace Type,Clearwrite
Detector,Normal
Trace Math,Off
Trace Math Oper1,Trace5
Trace Math Oper2,Trace6
Trace Math Offset,0
Normalize,Off
Trace Name,Trace1
X Axis Units,s
Y Axis Units,dBm
DATA
0,-56.6954650878906
5.00006103590132E-09,-56.5694427490234
1.00001220718026E-08,-56.4123725891113
1.50001831077039E-08,-56.2297210693359
2.00002441436053E-08,-56.0269508361816
2.50003051795066E-08,-55.8095283508301
3.00003662154079E-08,-55.5829162597656
3.50004272513092E-08,-55.3525848388672
4.00004882872105E-08,-55.1239929199219
4.50005493231118E-08,-54.9026069641113
5.00006103590132E-08,-54.6938934326172
5.50006713949145E-08,-54.5033111572266
6.00007324308158E-08,-54.3342971801758
6.50007934667171E-08,-54.1650314331055
7.00008545026184E-08,-53.9902839660645
7.50009155385197E-08,-53.8127670288086
8.00009765744211E-08,-53.635196685791
8.50010376103224E-08,-53.460277557373
9.00010986462237E-08,-53.2907295227051
9.5001159682125E-08,-53.1292533874512
1.00001220718026E-07,-52.9785690307617
1.05001281753928E-07,-52.8413848876953
1.10001342789829E-07,-52.7204093933105
1.1500140382573E-07,-52.6183586120605
1.20001464861632E-07,-52.5379447937012
1.25001525897533E-07,-52.4818725585938
1.30001586933434E-07,-52.4432945251465
1.35001647969336E-07,-52.4145469665527
1.40001709005237E-07,-52.3971366882324
1.45001770041138E-07,-52.3925628662109
1.50001831077039E-07,-52.4023246765137
1.55001892112941E-07,-52.4279289245605
1.60001953148842E-07,-52.4708786010742
1.65002014184743E-07,-52.5326728820801
1.70002075220645E-07,-52.6148109436035
1.75002136256546E-07,-52.7188034057617
1.80002197292447E-07,-52.8461456298828
1.85002258328349E-07,-52.9983444213867
1.9000231936425E-07,-53.1768989562988
1.95002380400151E-07,-53.3837242126465
2.00002441436053E-07,-53.6200103759766
2.05002502471954E-07,-53.8838195800781
2.10002563507855E-07,-54.1730499267578
2.15002624543757E-07,-54.4856033325195
2.20002685579658E-07,-54.8193664550781
2.25002746615559E-07,-55.1722450256348
2.30002807651461E-07,-55.5421333312988
2.35002868687362E-07,-55.9269256591797
2.40002929723263E-07,-56.3245239257813
2.45002990759165E-07,-56.7328224182129
2.50003051795066E-07,-57.149715423584
2.55003112830967E-07,-57.5731048583984
2.60003173866868E-07,-58.00390625
2.6500323490277E-07,-58.4768676757813
2.70003295938671E-07,-58.9943428039551
2.75003356974572E-07,-59.5459899902344
2.80003418010474E-07,-60.121467590332
2.85003479046375E-07,-60.7104263305664
2.90003540082276E-07,-61.3025321960449
2.95003601118178E-07,-61.8874320983887
3.00003662154079E-07,-62.4547882080078
3.0500372318998E-07,-62.9942588806152
3.10003784225882E-07,-63.4954948425293
3.15003845261783E-07,-63.9481582641602
3.20003906297684E-07,-64.3419036865234
3.25003967333586E-07,-64.6663818359375
3.30004028369487E-07,-64.9290237426758
3.35004089405388E-07,-65.1463851928711
3.4000415044129E-07,-65.3218536376953
3.45004211477191E-07,-65.4588012695313
3.50004272513092E-07,-65.5606155395508
3.55004333548993E-07,-65.6306686401367
3.60004394584895E-07,-65.6723480224609
3.65004455620796E-07,-65.6890258789063
3.70004516656697E-07,-65.6840972900391
3.75004577692599E-07,-65.6609268188477
3.800046387285E-07,-65.6229019165039
3.85004699764401E-07,-65.5734024047852
3.90004760800303E-07,-65.5158081054688
3.95004821836204E-07,-65.4432754516602
4.00004882872105E-07,-65.3277359008789
4.05004943908007E-07,-65.1737060546875
4.10005004943908E-07,-64.9883422851563
4.15005065979809E-07,-64.7788009643555
4.20005127015711E-07,-64.55224609375
4.25005188051612E-07,-64.3158187866211
4.30005249087513E-07,-64.0766830444336
4.35005310123415E-07,-63.8419876098633
4.40005371159316E-07,-63.6188926696777
4.45005432195217E-07,-63.4145469665527
4.50005493231119E-07,-63.2361106872559
4.5500555426702E-07,-63.0907325744629
4.60005615302921E-07,-62.982852935791
4.65005676338822E-07,-62.8832359313965
4.70005737374724E-07,-62.7850341796875
4.75005798410625E-07,-62.6920318603516
4.80005859446526E-07,-62.6080055236816
4.85005920482428E-07,-62.536750793457
4.90005981518329E-07,-62.482048034668
4.9500604255423E-07,-62.4476776123047
5.00006103590132E-07,-62.4374313354492
5.05006164626033E-07,-62.4550933837891
5.10006225661934E-07,-62.5044441223145
5.15006286697836E-07,-62.5892715454102
5.20006347733737E-07,-62.7133560180664
5.25006408769638E-07,-62.8804893493652
5.3000646980554E-07,-63.1114196777344
5.35006530841441E-07,-63.4159393310547
5.40006591877342E-07,-63.7813987731934
5.45006652913243E-07,-64.1951446533203
5.50006713949145E-07,-64.6445236206055
5.55006774985046E-07,-65.1168746948242
5.60006836020948E-07,-65.5995559692383
5.65006897056849E-07,-66.0799179077148
5.7000695809275E-07,-66.545295715332
5.75007019128651E-07,-66.983039855957
5.80007080164553E-07,-67.380500793457
5.85007141200454E-07,-67.7250213623047
5.90007202236355E-07,-68.0039520263672
5.95007263272257E-07,-68.2130737304688
6.00007324308158E-07,-68.3753204345703
6.05007385344059E-07,-68.4974594116211
6.10007446379961E-07,-68.5845031738281
6.15007507415862E-07,-68.6414260864258
6.20007568451763E-07,-68.6732406616211
6.25007629487665E-07,-68.684928894043
6.30007690523566E-07,-68.6814880371094
6.35007751559467E-07,-68.6679229736328
6.40007812595369E-07,-68.6492156982422
6.4500787363127E-07,-68.63037109375
6.50007934667171E-07,-68.6163711547852
6.55007995703072E-07,-68.6122283935547
6.60008056738974E-07,-68.6213073730469
6.65008117774875E-07,-68.62646484375
6.70008178810776E-07,-68.6229705810547
6.75008239846678E-07,-68.6123046875
6.80008300882579E-07,-68.5959625244141
6.8500836191848E-07,-68.5754241943359
6.90008422954382E-07,-68.5521850585938
6.95008483990283E-07,-68.5277252197266
7.00008545026184E-07,-68.503547668457
7.05008606062086E-07,-68.4811248779297
7.10008667097987E-07,-68.4619522094727
7.15008728133888E-07,-68.4475173950195
7.2000878916979E-07,-68.4393081665039
7.25008850205691E-07,-68.4388122558594
7.30008911241592E-07,-68.451416015625
7.35008972277494E-07,-68.4790954589844
7.40009033313395E-07,-68.5182189941406
7.45009094349296E-07,-68.5651702880859
7.50009155385198E-07,-68.6163177490234
7.55009216421099E-07,-68.6680374145508
7.60009277457E-07,-68.7167129516602
7.65009338492901E-07,-68.7587051391602
7.70009399528803E-07,-68.790397644043
7.75009460564704E-07,-68.8081741333008
7.80009521600605E-07,-68.8083953857422
7.85009582636507E-07,-68.7874374389648
7.90009643672408E-07,-68.7416839599609
7.95009704708309E-07,-68.6654434204102
8.00009765744211E-07,-68.5529327392578
8.05009826780112E-07,-68.4096603393555
8.10009887816013E-07,-68.241828918457
8.15009948851915E-07,-68.0556564331055
8.20010009887816E-07,-67.8573303222656
8.25010070923717E-07,-67.653076171875
8.30010131959619E-07,-67.449089050293
8.3501019299552E-07,-67.2515716552734
8.40010254031421E-07,-67.0667419433594
8.45010315067323E-07,-66.9007949829102
8.50010376103224E-07,-66.7599411010742
8.55010437139125E-07,-66.6503829956055
8.60010498175026E-07,-66.5762329101563
8.65010559210928E-07,-66.5151824951172
8.70010620246829E-07,-66.4613265991211
8.7501068128273E-07,-66.4168853759766
8.80010742318632E-07,-66.3840484619141
8.85010803354533E-07,-66.3650207519531
8.90010864390434E-07,-66.3620223999023
8.95010925426336E-07,-66.3772430419922
9.00010986462237E-07,-66.4128952026367
9.05011047498138E-07,-66.47119140625
9.1001110853404E-07,-66.5543212890625
9.15011169569941E-07,-66.6644973754883
9.20011230605842E-07,-66.8039321899414
9.25011291641744E-07,-66.9748229980469
9.30011352677645E-07,-67.2135772705078
9.35011413713546E-07,-67.5423431396484
9.40011474749448E-07,-67.9419021606445
9.45011535785349E-07,-68.39306640625
9.5001159682125E-07,-68.8766326904297
9.55011657857151E-07,-69.3733825683594
9.60011718893053E-07,-69.864128112793
9.65011779928954E-07,-70.3296585083008
9.70011840964855E-07,-70.7507705688477
9.75011902000757E-07,-71.108268737793
9.80011963036658E-07,-71.382942199707
9.85012024072559E-07,-71.5555953979492
9.90012085108461E-07,-71.6070175170898
9.95012146144362E-07,-71.5186004638672
1.00001220718026E-06,-71.2914962768555
1.00501226821616E-06,-70.9457092285156
1.01001232925207E-06,-70.501823425293
1.01501239028797E-06,-69.9804458618164
1.02001245132387E-06,-69.4021530151367
1.02501251235977E-06,-68.7875442504883
1.03001257339567E-06,-68.1572036743164
1.03501263443157E-06,-67.53173828125
1.04001269546747E-06,-66.9317245483398
1.04501275650338E-06,-66.3777618408203
1.05001281753928E-06,-65.8904418945313
1.05501287857518E-06,-65.4903564453125
1.06001293961108E-06,-65.1935653686523
1.06501300064698E-06,-64.9548873901367
1.07001306168288E-06,-64.7551040649414
1.07501312271878E-06,-64.5913619995117
1.08001318375468E-06,-64.460823059082
1.08501324479059E-06,-64.3606338500977
1.09001330582649E-06,-64.2879486083984
1.09501336686239E-06,-64.2399139404297
1.10001342789829E-06,-64.2136840820313
1.10501348893419E-06,-64.206413269043
1.11001354997009E-06,-64.2152481079102
1.11501361100599E-06,-64.2373504638672
1.1200136720419E-06,-64.2698593139648
1.1250137330778E-06,-64.309944152832
1.1300137941137E-06,-64.3772583007813
1.1350138551496E-06,-64.4883041381836
1.1400139161855E-06,-64.6354141235352
1.1450139772214E-06,-64.8109512329102
1.1500140382573E-06,-65.0072631835938
1.1550140992932E-06,-65.2167053222656
1.16001416032911E-06,-65.4316177368164
1.16501422136501E-06,-65.6443634033203
1.17001428240091E-06,-65.847282409668
1.17501434343681E-06,-66.0327377319336
1.18001440447271E-06,-66.1930770874023
1.18501446550861E-06,-66.3206481933594
1.19001452654451E-06,-66.4078063964844
1.19501458758041E-06,-66.4496612548828
1.20001464861632E-06,-66.4536056518555
1.20501470965222E-06,-66.4256210327148
1.21001477068812E-06,-66.3712005615234
1.21501483172402E-06,-66.2958755493164
1.22001489275992E-06,-66.2051620483398
1.22501495379582E-06,-66.1045608520508
1.23001501483172E-06,-65.9996109008789
1.23501507586763E-06,-65.8958053588867
1.24001513690353E-06,-65.7986755371094
1.24501519793943E-06,-65.7137298583984
1.25001525897533E-06,-65.646484375
1.25501532001123E-06,-65.6024551391602
1.26001538104713E-06,-65.5839385986328
1.26501544208303E-06,-65.5550994873047
1.27001550311893E-06,-65.510498046875
1.27501556415484E-06,-65.4577255249023
1.28001562519074E-06,-65.4043960571289
1.28501568622664E-06,-65.3581161499023
1.29001574726254E-06,-65.3264923095703
1.29501580829844E-06,-65.317138671875
1.30001586933434E-06,-65.3376541137695
1.30501593037024E-06,-65.3956604003906
1.31001599140614E-06,-65.4987487792969
1.31501605244205E-06,-65.6545333862305
1.32001611347795E-06,-65.8706283569336
1.32501617451385E-06,-66.1546325683594
1.33001623554975E-06,-66.5552139282227
1.33501629658565E-06,-67.0967483520508
1.34001635762155E-06,-67.7504272460938
1.34501641865745E-06,-68.4874420166016
1.35001647969336E-06,-69.2789611816406
1.35501654072926E-06,-70.0961837768555
1.36001660176516E-06,-70.9102935791016
1.36501666280106E-06,-71.6924819946289
1.37001672383696E-06,-72.4139175415039
1.37501678487286E-06,-73.0457992553711
1.38001684590876E-06,-73.5593109130859
1.38501690694466E-06,-73.9256362915039
1.39001696798057E-06,-74.1159591674805
1.39501702901647E-06,-74.1059722900391
1.40001709005237E-06,-73.907356262207
1.40501715108827E-06,-73.547248840332
1.41001721212417E-06,-73.0527114868164
1.41501727316007E-06,-72.4507675170898
1.42001733419597E-06,-71.7684860229492
1.42501739523188E-06,-71.0329132080078
1.43001745626778E-06,-70.2710800170898
1.43501751730368E-06,-69.5100555419922
1.44001757833958E-06,-68.7768707275391
1.44501763937548E-06,-68.0985870361328
1.45001770041138E-06,-67.5022430419922
1.45501776144728E-06,-67.0148849487305
1.46001782248318E-06,-66.6587524414063
1.46501788351909E-06,-66.3877029418945
1.47001794455499E-06,-66.1766815185547
1.47501800559089E-06,-66.0172653198242
1.48001806662679E-06,-65.9010467529297
1.48501812766269E-06,-65.8196258544922
1.49001818869859E-06,-65.7645874023438
1.49501824973449E-06,-65.7275161743164
1.5000183107704E-06,-65.7000122070313
1.5050183718063E-06,-65.6736602783203
1.5100184328422E-06,-65.6400604248047
1.5150184938781E-06,-65.5907821655273
1.520018554914E-06,-65.5174407958984
1.5250186159499E-06,-65.4116134643555
1.5300186769858E-06,-65.2961349487305
1.5350187380217E-06,-65.1958312988281
1.54001879905761E-06,-65.1052780151367
1.54501886009351E-06,-65.0190505981445
1.55001892112941E-06,-64.9317169189453
1.55501898216531E-06,-64.8378448486328
1.56001904320121E-06,-64.7320175170898
1.56501910423711E-06,-64.6087951660156
1.57001916527301E-06,-64.462760925293
1.57501922630891E-06,-64.2884826660156
1.58001928734482E-06,-64.0805358886719
1.58501934838072E-06,-63.8334922790527
1.59001940941662E-06,-63.541919708252
1.59501947045252E-06,-63.1992263793945
1.60001953148842E-06,-62.8020515441895
1.60501959252432E-06,-62.3571090698242
1.61001965356022E-06,-61.8716468811035
1.61501971459613E-06,-61.352912902832
1.62001977563203E-06,-60.8081436157227
1.62501983666793E-06,-60.2445945739746
1.63001989770383E-06,-59.6695022583008
1.63501995873973E-06,-59.0901145935059
1.64002001977563E-06,-58.5136795043945
1.64502008081153E-06,-57.947437286377
1.65002014184743E-06,-57.3986358642578
1.65502020288334E-06,-56.8745155334473
1.66002026391924E-06,-56.3797225952148
1.66502032495514E-06,-55.8864364624023
1.67002038599104E-06,-55.3877334594727
1.67502044702694E-06,-54.8868255615234
1.68002050806284E-06,-54.3869171142578
1.68502056909874E-06,-53.8912124633789
1.69002063013465E-06,-53.4029121398926
1.69502069117055E-06,-52.9252319335938
1.70002075220645E-06,-52.461368560791
1.70502081324235E-06,-52.0145301818848
1.71002087427825E-06,-51.5879211425781
1.71502093531415E-06,-51.1847496032715
1.72002099635005E-06,-50.8082160949707
1.72502105738595E-06,-50.4615325927734
1.73002111842186E-06,-50.138500213623
1.73502117945776E-06,-49.8313522338867
1.74002124049366E-06,-49.540943145752
1.74502130152956E-06,-49.2681121826172
1.75002136256546E-06,-49.0137100219727
1.75502142360136E-06,-48.7785873413086
1.76002148463726E-06,-48.5635871887207
1.76502154567316E-06,-48.369556427002
1.77002160670907E-06,-48.1973457336426
1.77502166774497E-06,-48.0477981567383
1.78002172878087E-06,-47.9217681884766
1.78502178981677E-06,-47.8200950622559
1.79002185085267E-06,-47.7436332702637
1.79502191188857E-06,-47.6925888061523
1.80002197292447E-06,-47.6652336120605
1.80502203396038E-06,-47.6611671447754
1.81002209499628E-06,-47.6801300048828
1.81502215603218E-06,-47.721866607666
1.82002221706808E-06,-47.7861175537109
1.82502227810398E-06,-47.8726272583008
1.83002233913988E-06,-47.9811325073242
1.83502240017578E-06,-48.1113739013672
1.84002246121168E-06,-48.2630958557129
1.84502252224759E-06,-48.4360427856445
1.85002258328349E-06,-48.6299476623535
1.85502264431939E-06,-48.8445587158203
1.86002270535529E-06,-49.0810852050781
1.86502276639119E-06,-49.356689453125
1.87002282742709E-06,-49.6718368530273
1.87502288846299E-06,-50.0207023620605
1.8800229494989E-06,-50.3974609375
1.8850230105348E-06,-50.7962875366211
1.8900230715707E-06,-51.2113609313965
1.8950231326066E-06,-51.6368560791016
1.9000231936425E-06,-52.0669479370117
1.9050232546784E-06,-52.4958152770996
1.9100233157143E-06,-52.9176368713379
1.9150233767502E-06,-53.3265838623047
1.92002343778611E-06,-53.7168350219727
1.92502349882201E-06,-54.0825653076172
1.93002355985791E-06,-54.4418411254883
1.93502362089381E-06,-54.8133811950684
1.94002368192971E-06,-55.192325592041
1.94502374296561E-06,-55.5738182067871
1.95002380400151E-06,-55.953010559082
1.95502386503741E-06,-56.3250465393066
1.96002392607332E-06,-56.6850700378418
1.96502398710922E-06,-57.0282249450684
1.97002404814512E-06,-57.3496589660645
1.97502410918102E-06,-57.6445198059082
1.98002417021692E-06,-57.9079513549805
1.98502423125282E-06,-58.1350975036621
1.99002429228872E-06,-58.321102142334
1.99502435332463E-06,-58.4623680114746
2.00002441436053E-06,-58.5622138977051
2.00502447539643E-06,-58.6248245239258
2.01002453643233E-06,-58.6542320251465
2.01502459746823E-06,-58.6544647216797
2.02002465850413E-06,-58.6295585632324
2.02502471954003E-06,-58.5835456848145
2.03002478057593E-06,-58.5204544067383
2.03502484161184E-06,-58.4443244934082
2.04002490264774E-06,-58.3591804504395
2.04502496368364E-06,-58.2690582275391
2.05002502471954E-06,-58.1779861450195
2.05502508575544E-06,-58.0900039672852
2.06002514679134E-06,-58.0076065063477
2.06502520782724E-06,-57.9143829345703
2.07002526886315E-06,-57.8064727783203
2.07502532989905E-06,-57.6859817504883
2.08002539093495E-06,-57.5550270080566
2.08502545197085E-06,-57.4157257080078
2.09002551300675E-06,-57.2701835632324
2.09502557404265E-06,-57.1205215454102
2.10002563507855E-06,-56.9688491821289
2.10502569611445E-06,-56.8172798156738
2.11002575715036E-06,-56.6679267883301
2.11502581818626E-06,-56.5229034423828
2.12002587922216E-06,-56.3843231201172
2.12502594025806E-06,-56.2543029785156
2.13002600129396E-06,-56.1256217956543
2.13502606232986E-06,-55.9910545349121
2.14002612336576E-06,-55.8526763916016
2.14502618440166E-06,-55.712574005127
2.15002624543757E-06,-55.5728187561035
2.15502630647347E-06,-55.4355010986328
2.16002636750937E-06,-55.3026962280273
2.16502642854527E-06,-55.1764869689941
2.17002648958117E-06,-55.058952331543
2.17502655061707E-06,-54.9521713256836
2.18002661165297E-06,-54.8582305908203
2.18502667268888E-06,-54.7792091369629
2.19002673372478E-06,-54.7171821594238
2.19502679476068E-06,-54.670841217041
2.20002685579658E-06,-54.6308746337891
2.20502691683248E-06,-54.5977668762207
2.21002697786838E-06,-54.5728378295898
2.21502703890428E-06,-54.5574073791504
2.22002709994018E-06,-54.552791595459
2.22502716097609E-06,-54.5603179931641
2.23002722201199E-06,-54.5813026428223
2.23502728304789E-06,-54.6170654296875
2.24002734408379E-06,-54.6689262390137
2.24502740511969E-06,-54.7382049560547
2.25002746615559E-06,-54.8262214660645
2.25502752719149E-06,-54.9342956542969
2.2600275882274E-06,-55.0641632080078
2.2650276492633E-06,-55.2212600708008
2.2700277102992E-06,-55.4044570922852
2.2750277713351E-06,-55.6106338500977
2.280027832371E-06,-55.8366737365723
2.2850278934069E-06,-56.0794525146484
2.2900279544428E-06,-56.3358459472656
2.2950280154787E-06,-56.6027336120605
2.30002807651461E-06,-56.8769950866699
2.30502813755051E-06,-57.1555099487305
2.31002819858641E-06,-57.4351539611816
2.31502825962231E-06,-57.7128105163574
2.32002832065821E-06,-57.9853477478027
2.32502838169411E-06,-58.2496528625488
2.33002844273001E-06,-58.5191268920898
2.33502850376592E-06,-58.8063125610352
2.34002856480182E-06,-59.1067962646484
2.34502862583772E-06,-59.4161682128906
2.35002868687362E-06,-59.7300148010254
2.35502874790952E-06,-60.0439338684082
2.36002880894542E-06,-60.3535079956055
2.36502886998132E-06,-60.6543273925781
2.37002893101722E-06,-60.9419784545898
2.37502899205313E-06,-61.2120590209961
2.38002905308903E-06,-61.460147857666
2.38502911412493E-06,-61.6818428039551
2.39002917516083E-06,-61.8727264404297
2.39502923619673E-06,-62.0272331237793
2.40002929723263E-06,-62.1420516967773
2.40502935826853E-06,-62.2228088378906
2.41002941930443E-06,-62.2756156921387
2.41502948034034E-06,-62.3065872192383
2.42002954137624E-06,-62.3218269348145
2.42502960241214E-06,-62.327449798584
2.43002966344804E-06,-62.3295669555664
2.43502972448394E-06,-62.3342933654785
2.44002978551984E-06,-62.3477325439453
2.44502984655574E-06,-62.3759994506836
2.45002990759165E-06,-62.4252052307129
2.45502996862755E-06,-62.50146484375
2.46003002966345E-06,-62.6093101501465
2.46503009069935E-06,-62.7326736450195
2.47003015173525E-06,-62.8658103942871
