Trace
Swept SA
A.19.55,N9020B
508 AB2 B25 B40 B85 DP2 DP4 EP2 FS1 FS2 MPB RTL ,01
Segment,0
Number of Points,81920
Sweep Time,0.0004096
Start Frequency,2400000000
Stop Frequency,2400000000
Average Count,0
Average Type,LogPower(Video)
RBW,3000000
RBW Filter,Gaussian
RBW Filter BW,3dB
VBW,3000000
Sweep Type,Swept
X Axis Scale,Lin
PreAmp State,Off
PreAmp Band,Low
Trigger Source,Ext1
Trigger Level,1.2
Trigger Slope,Positive
Trigger Delay,1E-06
Phase Noise Optimization,Fast
Swept If Gain,Low
FFT If Gain,Autorange
RF Coupling,AC
FFT Width,411900
Ext Ref,10000000
Input,RF
RF Calibrator,Off
Attenuation,6
Ref Level Offset,0
External Gain,0
Trace Type,Clearwrite
Detector,Normal
Trace Math,Off
Trace Math Oper1,Trace5
Trace Math Oper2,Trace6
Trace Math Offset,0
Normalize,Off
Trace Name,Trace1
X Axis Units,s
Y Axis Units,dBm
DATA
0,-86.0664215087891
5.00006103590132E-09,-85.4269256591797
1.00001220718026E-08,-84.6245040893555
1.50001831077039E-08,-83.7000732421875
2.00002441436053E-08,-82.6945571899414
2.50003051795066E-08,-81.6488876342773
3.00003662154079E-08,-80.6039886474609
3.50004272513092E-08,-79.6007690429688
4.00004882872105E-08,-78.6801605224609
4.50005493231118E-08,-77.8830947875977
5.00006103590132E-08,-77.2504730224609
5.50006713949145E-08,-76.8232421875
6.00007324308158E-08,-76.6383056640625
6.50007934667171E-08,-76.6645889282227
7.00008545026184E-08,-76.8646697998047
7.50009155385197E-08,-77.2121658325195
8.00009765744211E-08,-77.6806869506836
8.50010376103224E-08,-78.2438430786133
9.00010986462237E-08,-78.875244140625
9.5001159682125E-08,-79.5485076904297
1.00001220718026E-07,-80.2372512817383
1.05001281753928E-07,-80.9150772094727
1.10001342789829E-07,-81.5556030273438
1.1500140382573E-07,-82.1324462890625
1.20001464861632E-07,-82.6192092895508
1.25001525897533E-07,-82.9895095825195
1.30001586933434E-07,-83.2958602905273
1.35001647969336E-07,-83.6032257080078
1.40001709005237E-07,-83.9038925170898
1.45001770041138E-07,-84.1901321411133
1.50001831077039E-07,-84.454231262207
1.55001892112941E-07,-84.6884689331055
1.60001953148842E-07,-84.8851318359375
1.65002014184743E-07,-85.0364837646484
1.70002075220645E-07,-85.1348266601563
1.75002136256546E-07,-85.1724243164063
1.80002197292447E-07,-85.1415634155273
1.85002258328349E-07,-85.0345230102539
1.9000231936425E-07,-84.8435897827148
1.95002380400151E-07,-84.533805847168
2.00002441436053E-07,-84.0298767089844
2.05002502471954E-07,-83.3617324829102
2.10002563507855E-07,-82.5669250488281
2.15002624543757E-07,-81.6830215454102
2.20002685579658E-07,-80.7475891113281
2.25002746615559E-07,-79.7981796264648
2.30002807651461E-07,-78.8723678588867
2.35002868687362E-07,-78.0077056884766
2.40002929723263E-07,-77.2417526245117
2.45002990759165E-07,-76.6120834350586
2.50003051795066E-07,-76.1562576293945
2.55003112830967E-07,-75.9118347167969
2.60003173866868E-07,-75.9148864746094
2.6500323490277E-07,-76.1627426147461
2.70003295938671E-07,-76.6213912963867
2.75003356974572E-07,-77.2574844360352
2.80003418010474E-07,-78.0376815795898
2.85003479046375E-07,-78.9286499023438
2.90003540082276E-07,-79.8970489501953
2.95003601118178E-07,-80.9095306396484
3.00003662154079E-07,-81.9327545166016
3.0500372318998E-07,-82.9333877563477
3.10003784225882E-07,-83.8780899047852
3.15003845261783E-07,-84.733512878418
3.20003906297684E-07,-85.4663162231445
3.25003967333586E-07,-86.0431671142578
3.30004028369487E-07,-86.532096862793
3.35004089405388E-07,-87.0163192749023
3.4000415044129E-07,-87.4852600097656
3.45004211477191E-07,-87.928352355957
3.50004272513092E-07,-88.3350219726563
3.55004333548993E-07,-88.694709777832
3.60004394584895E-07,-88.9968338012695
3.65004455620796E-07,-89.230827331543
3.70004516656697E-07,-89.3861236572266
3.75004577692599E-07,-89.4521484375
3.800046387285E-07,-89.4183349609375
3.85004699764401E-07,-89.2741012573242
3.90004760800303E-07,-89.0088958740234
3.95004821836204E-07,-88.5875473022461
4.00004882872105E-07,-87.9420166015625
4.05004943908007E-07,-87.1031494140625
4.10005004943908E-07,-86.1088256835938
4.15005065979809E-07,-84.9969329833984
4.20005127015711E-07,-83.8053665161133
4.25005188051612E-07,-82.5720138549805
4.30005249087513E-07,-81.3347625732422
4.35005310123415E-07,-80.1315002441406
4.40005371159316E-07,-79.0001068115234
4.45005432195217E-07,-77.9784774780273
4.50005493231119E-07,-77.1045074462891
4.5500555426702E-07,-76.4160690307617
4.60005615302921E-07,-75.9461441040039
4.65005676338822E-07,-75.6516799926758
4.70005737374724E-07,-75.4978637695313
4.75005798410625E-07,-75.4652862548828
4.80005859446526E-07,-75.5345611572266
4.85005920482428E-07,-75.6862869262695
4.90005981518329E-07,-75.9010620117188
4.9500604255423E-07,-76.1594924926758
5.00006103590132E-07,-76.4421844482422
5.05006164626033E-07,-76.7297439575195
5.10006225661934E-07,-77.0027694702148
5.15006286697836E-07,-77.2418670654297
5.20006347733737E-07,-77.4276351928711
5.25006408769638E-07,-77.5406875610352
5.3000646980554E-07,-77.6202392578125
5.35006530841441E-07,-77.7144546508789
5.40006591877342E-07,-77.8173751831055
5.45006652913243E-07,-77.9230041503906
5.50006713949145E-07,-78.0253829956055
5.55006774985046E-07,-78.1185302734375
5.60006836020948E-07,-78.1964721679688
5.65006897056849E-07,-78.2532272338867
5.7000695809275E-07,-78.282829284668
5.75007019128651E-07,-78.279296875
5.80007080164553E-07,-78.2366561889648
5.85007141200454E-07,-78.1489334106445
5.90007202236355E-07,-78.0101547241211
5.95007263272257E-07,-77.8086776733398
6.00007324308158E-07,-77.5287399291992
6.05007385344059E-07,-77.1812286376953
6.10007446379961E-07,-76.7787704467773
6.15007507415862E-07,-76.3340148925781
6.20007568451763E-07,-75.8596038818359
6.25007629487665E-07,-75.3681716918945
6.30007690523566E-07,-74.8723526000977
6.35007751559467E-07,-74.3848037719727
6.40007812595369E-07,-73.9181442260742
6.4500787363127E-07,-73.4850311279297
6.50007934667171E-07,-73.0980987548828
6.55007995703072E-07,-72.7699813842773
6.60008056738974E-07,-72.5111541748047
6.65008117774875E-07,-72.3010940551758
6.70008178810776E-07,-72.1280975341797
6.75008239846678E-07,-71.9878616333008
6.80008300882579E-07,-71.876106262207
6.8500836191848E-07,-71.7885360717773
6.90008422954382E-07,-71.7208633422852
6.95008483990283E-07,-71.6687927246094
7.00008545026184E-07,-71.6280288696289
7.05008606062086E-07,-71.5942840576172
7.10008667097987E-07,-71.5632629394531
7.15008728133888E-07,-71.5306777954102
7.2000878916979E-07,-71.4922409057617
7.25008850205691E-07,-71.4436569213867
7.30008911241592E-07,-71.3965606689453
7.35008972277494E-07,-71.3636322021484
7.40009033313395E-07,-71.3420944213867
7.45009094349296E-07,-71.3291854858398
7.50009155385198E-07,-71.322135925293
7.55009216421099E-07,-71.3181915283203
7.60009277457E-07,-71.3145751953125
7.65009338492901E-07,-71.3085250854492
7.70009399528803E-07,-71.2972793579102
7.75009460564704E-07,-71.2780685424805
7.80009521600605E-07,-71.2481307983398
7.85009582636507E-07,-71.2046966552734
7.90009643672408E-07,-71.1450042724609
7.95009704708309E-07,-71.0544281005859
8.00009765744211E-07,-70.9001846313477
8.05009826780112E-07,-70.6946792602539
8.10009887816013E-07,-70.4536056518555
8.15009948851915E-07,-70.1926574707031
8.20010009887816E-07,-69.9275512695313
8.25010070923717E-07,-69.6739730834961
8.30010131959619E-07,-69.4476318359375
8.3501019299552E-07,-69.2642211914063
8.40010254031421E-07,-69.1394424438477
8.45010315067323E-07,-69.088996887207
8.50010376103224E-07,-69.1285781860352
8.55010437139125E-07,-69.2739028930664
8.60010498175026E-07,-69.5420989990234
8.65010559210928E-07,-69.9562606811523
8.70010620246829E-07,-70.5025024414063
8.7501068128273E-07,-71.158332824707
8.80010742318632E-07,-71.9012680053711
8.85010803354533E-07,-72.7088241577148
8.90010864390434E-07,-73.5585098266602
8.95010925426336E-07,-74.427848815918
9.00010986462237E-07,-75.2943572998047
9.05011047498138E-07,-76.1355514526367
9.1001110853404E-07,-76.9289321899414
9.15011169569941E-07,-77.6520309448242
9.20011230605842E-07,-78.282356262207
9.25011291641744E-07,-78.7974319458008
9.30011352677645E-07,-79.2323608398438
9.35011413713546E-07,-79.635986328125
9.40011474749448E-07,-80.0064315795898
9.45011535785349E-07,-80.3418045043945
9.5001159682125E-07,-80.6401977539063
9.55011657857151E-07,-80.8997344970703
9.60011718893053E-07,-81.118522644043
9.65011779928954E-07,-81.2946701049805
9.70011840964855E-07,-81.4262771606445
9.75011902000757E-07,-81.5114669799805
9.80011963036658E-07,-81.5483322143555
9.85012024072559E-07,-81.5349960327148
9.90012085108461E-07,-81.4695663452148
9.95012146144362E-07,-81.3311386108398
1.00001220718026E-06,-81.0672912597656
1.00501226821616E-06,-80.6951599121094
1.01001232925207E-06,-80.2370910644531
1.01501239028797E-06,-79.7154235839844
1.02001245132387E-06,-79.1525192260742
1.02501251235977E-06,-78.5707015991211
1.03001257339567E-06,-77.9923248291016
1.03501263443157E-06,-77.4397354125977
1.04001269546747E-06,-76.9352645874023
1.04501275650338E-06,-76.5012741088867
1.05001281753928E-06,-76.1601028442383
1.05501287857518E-06,-75.93408203125
1.06001293961108E-06,-75.843635559082
1.06501300064698E-06,-75.8747482299805
1.07001306168288E-06,-76.0070343017578
1.07501312271878E-06,-76.2250289916992
1.08001318375468E-06,-76.5132904052734
1.08501324479059E-06,-76.8563613891602
1.09001330582649E-06,-77.2387924194336
1.09501336686239E-06,-77.6451263427734
1.10001342789829E-06,-78.0599060058594
1.10501348893419E-06,-78.4676895141602
1.11001354997009E-06,-78.85302734375
1.11501361100599E-06,-79.2004470825195
1.1200136720419E-06,-79.494514465332
1.1250137330778E-06,-79.7197723388672
1.1300137941137E-06,-79.8954772949219
1.1350138551496E-06,-80.0518951416016
1.1400139161855E-06,-80.1901016235352
1.1450139772214E-06,-80.3111801147461
1.1500140382573E-06,-80.4161911010742
1.1550140992932E-06,-80.5062103271484
1.16001416032911E-06,-80.5823211669922
1.16501422136501E-06,-80.6455841064453
1.17001428240091E-06,-80.6970748901367
1.17501434343681E-06,-80.7378768920898
1.18001440447271E-06,-80.7690582275391
1.18501446550861E-06,-80.7916870117188
1.19001452654451E-06,-80.8068466186523
1.19501458758041E-06,-80.8124313354492
1.20001464861632E-06,-80.7997589111328
1.20501470965222E-06,-80.7701950073242
1.21001477068812E-06,-80.7259292602539
1.21501483172402E-06,-80.6691436767578
1.22001489275992E-06,-80.6020355224609
1.22501495379582E-06,-80.5267791748047
1.23001501483172E-06,-80.4455718994141
1.23501507586763E-06,-80.360595703125
1.24001513690353E-06,-80.274040222168
1.24501519793943E-06,-80.1880874633789
1.25001525897533E-06,-80.1049270629883
1.25501532001123E-06,-80.0267486572266
1.26001538104713E-06,-79.9548950195313
1.26501544208303E-06,-79.8803558349609
1.27001550311893E-06,-79.8010482788086
1.27501556415484E-06,-79.718147277832
1.28001562519074E-06,-79.6328277587891
1.28501568622664E-06,-79.5462875366211
1.29001574726254E-06,-79.4597015380859
1.29501580829844E-06,-79.3742599487305
1.30001586933434E-06,-79.2911376953125
1.30501593037024E-06,-79.2115173339844
1.31001599140614E-06,-79.136589050293
1.31501605244205E-06,-79.0675277709961
1.32001611347795E-06,-79.0055313110352
1.32501617451385E-06,-78.9517669677734
1.33001623554975E-06,-78.9206237792969
1.33501629658565E-06,-78.9205093383789
1.34001635762155E-06,-78.9436111450195
1.34501641865745E-06,-78.9821395874023
1.35001647969336E-06,-79.0282974243164
1.35501654072926E-06,-79.0742874145508
1.36001660176516E-06,-79.1123123168945
1.36501666280106E-06,-79.1345672607422
1.37001672383696E-06,-79.1332702636719
1.37501678487286E-06,-79.1006088256836
1.38001684590876E-06,-79.0287933349609
1.38501690694466E-06,-78.9100189208984
1.39001696798057E-06,-78.7364959716797
1.39501702901647E-06,-78.4993362426758
1.40001709005237E-06,-78.1953430175781
1.40501715108827E-06,-77.8336944580078
1.41001721212417E-06,-77.4241790771484
1.41501727316007E-06,-76.9765548706055
1.42001733419597E-06,-76.500617980957
1.42501739523188E-06,-76.0061416625977
1.43001745626778E-06,-75.5028991699219
1.43501751730368E-06,-75.0006637573242
1.44001757833958E-06,-74.5092239379883
1.44501763937548E-06,-74.0383529663086
1.45001770041138E-06,-73.5978317260742
1.45501776144728E-06,-73.1974334716797
1.46001782248318E-06,-72.8444213867188
1.46501788351909E-06,-72.5130004882813
1.47001794455499E-06,-72.1939926147461
1.47501800559089E-06,-71.8875732421875
1.48001806662679E-06,-71.5939178466797
1.48501812766269E-06,-71.3132095336914
1.49001818869859E-06,-71.0456237792969
1.49501824973449E-06,-70.7913360595703
1.5000183107704E-06,-70.5505294799805
1.5050183718063E-06,-70.3233795166016
1.5100184328422E-06,-70.1100540161133
1.5150184938781E-06,-69.9107437133789
1.520018554914E-06,-69.7256240844727
1.5250186159499E-06,-69.5548706054688
1.5300186769858E-06,-69.4301834106445
1.5350187380217E-06,-69.3727874755859
1.54001879905761E-06,-69.3671493530273
1.54501886009351E-06,-69.3977127075195
1.55001892112941E-06,-69.4489364624023
1.55501898216531E-06,-69.5052795410156
1.56001904320121E-06,-69.5512008666992
1.56501910423711E-06,-69.5711441040039
1.57001916527301E-06,-69.5495834350586
1.57501922630891E-06,-69.4709625244141
1.58001928734482E-06,-69.3197402954102
1.58501934838072E-06,-69.0803756713867
1.59001940941662E-06,-68.7373275756836
1.59501947045252E-06,-68.271842956543
1.60001953148842E-06,-67.6747436523438
1.60501959252432E-06,-66.9651260375977
1.61001965356022E-06,-66.1635894775391
1.61501971459613E-06,-65.2907104492188
1.62001977563203E-06,-64.3670806884766
1.62501983666793E-06,-63.4132766723633
1.63001989770383E-06,-62.4498901367188
1.63501995873973E-06,-61.4974975585938
1.64002001977563E-06,-60.5766868591309
1.64502008081153E-06,-59.7080421447754
1.65002014184743E-06,-58.9121475219727
1.65502020288334E-06,-58.209587097168
1.66002026391924E-06,-57.6167411804199
1.66502032495514E-06,-57.0921630859375
1.67002038599104E-06,-56.61669921875
1.67502044702694E-06,-56.1861839294434
1.68002050806284E-06,-55.7964477539063
1.68502056909874E-06,-55.4433326721191
1.69002063013465E-06,-55.122673034668
1.69502069117055E-06,-54.8303031921387
1.70002075220645E-06,-54.5620574951172
1.70502081324235E-06,-54.3137741088867
1.71002087427825E-06,-54.0812911987305
1.71502093531415E-06,-53.8604393005371
1.72002099635005E-06,-53.6470527648926
1.72502105738595E-06,-53.4369735717773
1.73002111842186E-06,-53.2230644226074
1.73502117945776E-06,-53.0051536560059
1.74002124049366E-06,-52.7895278930664
1.74502130152956E-06,-52.5824699401855
1.75002136256546E-06,-52.3902702331543
1.75502142360136E-06,-52.2192077636719
1.76002148463726E-06,-52.075569152832
1.76502154567316E-06,-51.9656448364258
1.77002160670907E-06,-51.8957099914551
1.77502166774497E-06,-51.8720588684082
1.78002172878087E-06,-51.9009742736816
1.78502178981677E-06,-51.9887351989746
1.79002185085267E-06,-52.1416320800781
1.79502191188857E-06,-52.3650550842285
1.80002197292447E-06,-52.656681060791
1.80502203396038E-06,-53.0105247497559
1.81002209499628E-06,-53.420597076416
1.81502215603218E-06,-53.8809089660645
1.82002221706808E-06,-54.3854751586914
1.82502227810398E-06,-54.9282989501953
1.83002233913988E-06,-55.5033950805664
1.83502240017578E-06,-56.1047782897949
1.84002246121168E-06,-56.7264518737793
1.84502252224759E-06,-57.3624305725098
1.85002258328349E-06,-58.006721496582
1.85502264431939E-06,-58.6533432006836
1.86002270535529E-06,-59.3010864257813
1.86502276639119E-06,-60.0039482116699
1.87002282742709E-06,-60.7680511474609
1.87502288846299E-06,-61.5798072814941
1.8800229494989E-06,-62.4256248474121
1.8850230105348E-06,-63.2919158935547
1.8900230715707E-06,-64.1650848388672
1.8950231326066E-06,-65.0315551757813
1.9000231936425E-06,-65.8777236938477
1.9050232546784E-06,-66.6900100708008
1.9100233157143E-06,-67.4548187255859
1.9150233767502E-06,-68.1585693359375
1.92002343778611E-06,-68.7876586914063
1.92502349882201E-06,-69.3285064697266
1.93002355985791E-06,-69.7786331176758
1.93502362089381E-06,-70.1515350341797
1.94002368192971E-06,-70.4576110839844
1.94502374296561E-06,-70.7072448730469
1.95002380400151E-06,-70.9108200073242
1.95502386503741E-06,-71.0787353515625
1.96002392607332E-06,-71.2213821411133
1.96502398710922E-06,-71.3491363525391
1.97002404814512E-06,-71.4723968505859
1.97502410918102E-06,-71.6015472412109
1.98002417021692E-06,-71.7469787597656
1.98502423125282E-06,-71.919075012207
1.99002429228872E-06,-72.1282348632813
1.99502435332463E-06,-72.3777008056641
2.00002441436053E-06,-72.6480407714844
2.00502447539643E-06,-72.9338607788086
2.01002453643233E-06,-73.2312927246094
2.01502459746823E-06,-73.5364761352539
2.02002465850413E-06,-73.8455352783203
2.02502471954003E-06,-74.1546020507813
2.03002478057593E-06,-74.4598159790039
2.03502484161184E-06,-74.7573013305664
2.04002490264774E-06,-75.0431823730469
2.04502496368364E-06,-75.313606262207
2.05002502471954E-06,-75.564697265625
2.05502508575544E-06,-75.7925796508789
2.06002514679134E-06,-75.9940338134766
2.06502520782724E-06,-76.1749877929688
2.07002526886315E-06,-76.3390274047852
2.07502532989905E-06,-76.4875793457031
2.08002539093495E-06,-76.6220855712891
2.08502545197085E-06,-76.7439727783203
2.09002551300675E-06,-76.8546829223633
2.09502557404265E-06,-76.9556427001953
2.10002563507855E-06,-77.0482940673828
2.10502569611445E-06,-77.1340713500977
2.11002575715036E-06,-77.2143936157227
2.11502581818626E-06,-77.2907180786133
2.12002587922216E-06,-77.3644561767578
2.12502594025806E-06,-77.4370651245117
2.13002600129396E-06,-77.5111236572266
2.13502606232986E-06,-77.586799621582
2.14002612336576E-06,-77.6618576049805
2.14502618440166E-06,-77.7340621948242
2.15002624543757E-06,-77.8011779785156
2.15502630647347E-06,-77.860969543457
2.16002636750937E-06,-77.9112091064453
2.16502642854527E-06,-77.9496536254883
2.17002648958117E-06,-77.9740753173828
2.17502655061707E-06,-77.9822387695313
2.18002661165297E-06,-77.9719009399414
2.18502667268888E-06,-77.9408416748047
2.19002673372478E-06,-77.8868179321289
2.19502679476068E-06,-77.798210144043
2.20002685579658E-06,-77.649055480957
2.20502691683248E-06,-77.4492111206055
2.21002697786838E-06,-77.2111740112305
2.21502703890428E-06,-76.9474182128906
2.22002709994018E-06,-76.6704254150391
2.22502716097609E-06,-76.3926696777344
2.23002722201199E-06,-76.1266479492188
2.23502728304789E-06,-75.8848266601563
2.24002734408379E-06,-75.6797027587891
2.24502740511969E-06,-75.5237426757813
2.25002746615559E-06,-75.429443359375
2.25502752719149E-06,-75.4092712402344
2.2600275882274E-06,-75.4757080078125
2.2650276492633E-06,-75.6334533691406
2.2700277102992E-06,-75.8712921142578
2.2750277713351E-06,-76.176155090332
2.280027832371E-06,-76.5349884033203
2.2850278934069E-06,-76.9347381591797
2.2900279544428E-06,-77.3623428344727
2.2950280154787E-06,-77.8047485351563
2.30002807651461E-06,-78.248893737793
2.30502813755051E-06,-78.6817245483398
2.31002819858641E-06,-79.0901794433594
2.31502825962231E-06,-79.4612045288086
2.32002832065821E-06,-79.7817459106445
2.32502838169411E-06,-80.0387344360352
2.33002844273001E-06,-80.2630081176758
2.33502850376592E-06,-80.4899597167969
2.34002856480182E-06,-80.7134323120117
2.34502862583772E-06,-80.92724609375
2.35002868687362E-06,-81.1252365112305
2.35502874790952E-06,-81.3012237548828
2.36002880894542E-06,-81.4490432739258
2.36502886998132E-06,-81.5625228881836
2.37002893101722E-06,-81.6354904174805
2.37502899205313E-06,-81.6617660522461
2.38002905308903E-06,-81.6351928710938
2.38502911412493E-06,-81.5495910644531
2.39002917516083E-06,-81.3987808227539
2.39502923619673E-06,-81.1625518798828
2.40002929723263E-06,-80.8019714355469
2.40502935826853E-06,-80.3348236083984
2.41002941930443E-06,-79.7829055786133
2.41502948034034E-06,-79.1680374145508
2.42002954137624E-06,-78.5120086669922
2.42502960241214E-06,-77.8366394042969
2.43002966344804E-06,-77.1637191772461
2.43502972448394E-06,-76.5150680541992
2.44002978551984E-06,-75.912483215332
2.44502984655574E-06,-75.3777770996094
2.45002990759165E-06,-74.932746887207
2.45502996862755E-06,-74.5992050170898
2.46003002966345E-06,-74.3966674804688
2.46503009069935E-06,-74.3067932128906
2.47003015173525E-06,-74.3096160888672
