Trace
Swept SA
A.19.55,N9020B
508 AB2 B25 B40 B85 DP2 DP4 EP2 FS1 FS2 MPB RTL ,01
Segment,0
Number of Points,81920
Sweep Time,0.0004096
Start Frequency,2400000000
Stop Frequency,2400000000
Average Count,0
Average Type,LogPower(Video)
RBW,3000000
RBW Filter,Gaussian
RBW Filter BW,3dB
VBW,3000000
Sweep Type,Swept
X Axis Scale,Lin
PreAmp State,Off
PreAmp Band,Low
Trigger Source,Ext1
Trigger Level,1.2
Trigger Slope,Positive
Trigger Delay,1E-06
Phase Noise Optimization,Fast
Swept If Gain,Low
FFT If Gain,Autorange
RF Coupling,AC
FFT Width,411900
Ext Ref,10000000
Input,RF
RF Calibrator,Off
Attenuation,6
Ref Level Offset,0
External Gain,0
Trace Type,Clearwrite
Detector,Normal
Trace Math,Off
Trace Math Oper1,Trace5
Trace Math Oper2,Trace6
Trace Math Offset,0
Normalize,Off
Trace Name,Trace1
X Axis Units,s
Y Axis Units,dBm
DATA
0,-76.1803207397461
5.00006103590132E-09,-76.4372787475586
1.00001220718026E-08,-76.7294769287109
1.50001831077039E-08,-77.049919128418
2.00002441436053E-08,-77.3916244506836
2.50003051795066E-08,-77.7476272583008
3.00003662154079E-08,-78.1109390258789
3.50004272513092E-08,-78.4745712280273
4.00004882872105E-08,-78.8315582275391
4.50005493231118E-08,-79.1749114990234
5.00006103590132E-08,-79.4976577758789
5.50006713949145E-08,-79.7928161621094
6.00007324308158E-08,-80.0556182861328
6.50007934667171E-08,-80.309440612793
7.00008545026184E-08,-80.5608978271484
7.50009155385197E-08,-80.8081207275391
8.00009765744211E-08,-81.0492248535156
8.50010376103224E-08,-81.2823333740234
9.00010986462237E-08,-81.5055770874023
9.5001159682125E-08,-81.7170715332031
1.00001220718026E-07,-81.9149398803711
1.05001281753928E-07,-82.0973052978516
1.10001342789829E-07,-82.2622985839844
1.1500140382573E-07,-82.4080276489258
1.20001464861632E-07,-82.5326309204102
1.25001525897533E-07,-82.6342163085938
1.30001586933434E-07,-82.6969833374023
1.35001647969336E-07,-82.7123336791992
1.40001709005237E-07,-82.6892242431641
1.45001770041138E-07,-82.6366271972656
1.50001831077039E-07,-82.5634994506836
1.55001892112941E-07,-82.4788131713867
1.60001953148842E-07,-82.3915176391602
1.65002014184743E-07,-82.3105926513672
1.70002075220645E-07,-82.2449798583984
1.75002136256546E-07,-82.2036590576172
1.80002197292447E-07,-82.1955947875977
1.85002258328349E-07,-82.229736328125
1.9000231936425E-07,-82.315055847168
1.95002380400151E-07,-82.4624710083008
2.00002441436053E-07,-82.6776275634766
2.05002502471954E-07,-82.9494094848633
2.10002563507855E-07,-83.2658081054688
2.15002624543757E-07,-83.6148300170898
2.20002685579658E-07,-83.9844741821289
2.25002746615559E-07,-84.3627471923828
2.30002807651461E-07,-84.7376480102539
2.35002868687362E-07,-85.0971755981445
2.40002929723263E-07,-85.4293441772461
2.45002990759165E-07,-85.7221374511719
2.50003051795066E-07,-85.9635772705078
2.55003112830967E-07,-86.1416473388672
2.60003173866868E-07,-86.2458114624023
2.6500323490277E-07,-86.2883758544922
2.70003295938671E-07,-86.2803497314453
2.75003356974572E-07,-86.2283477783203
2.80003418010474E-07,-86.1389694213867
2.85003479046375E-07,-86.0188293457031
2.90003540082276E-07,-85.8745193481445
2.95003601118178E-07,-85.7126617431641
3.00003662154079E-07,-85.5398483276367
3.0500372318998E-07,-85.3626937866211
3.10003784225882E-07,-85.1877975463867
3.15003845261783E-07,-85.0217742919922
3.20003906297684E-07,-84.871223449707
3.25003967333586E-07,-84.7427520751953
3.30004028369487E-07,-84.6172256469727
3.35004089405388E-07,-84.4743499755859
3.4000415044129E-07,-84.3189468383789
3.45004211477191E-07,-84.155876159668
3.50004272513092E-07,-83.9899826049805
3.55004333548993E-07,-83.8261032104492
3.60004394584895E-07,-83.6690902709961
3.65004455620796E-07,-83.5237731933594
3.70004516656697E-07,-83.3950119018555
3.75004577692599E-07,-83.2876510620117
3.800046387285E-07,-83.2065200805664
3.85004699764401E-07,-83.1564712524414
3.90004760800303E-07,-83.1423568725586
3.95004821836204E-07,-83.1715927124023
4.00004882872105E-07,-83.2514495849609
4.05004943908007E-07,-83.3746795654297
4.10005004943908E-07,-83.5331954956055
4.15005065979809E-07,-83.7188720703125
4.20005127015711E-07,-83.9236068725586
4.25005188051612E-07,-84.139274597168
4.30005249087513E-07,-84.357780456543
4.35005310123415E-07,-84.5710067749023
4.40005371159316E-07,-84.7708435058594
4.45005432195217E-07,-84.9491806030273
4.50005493231119E-07,-85.0979080200195
4.5500555426702E-07,-85.2089080810547
4.60005615302921E-07,-85.2751312255859
4.65005676338822E-07,-85.3058624267578
4.70005737374724E-07,-85.3085556030273
4.75005798410625E-07,-85.2873382568359
4.80005859446526E-07,-85.246337890625
4.85005920482428E-07,-85.1896896362305
4.90005981518329E-07,-85.1215133666992
4.9500604255423E-07,-85.0459518432617
5.00006103590132E-07,-84.9671249389648
5.05006164626033E-07,-84.88916015625
5.10006225661934E-07,-84.8161849975586
5.15006286697836E-07,-84.7523422241211
5.20006347733737E-07,-84.7017440795898
5.25006408769638E-07,-84.6685256958008
5.3000646980554E-07,-84.6443328857422
5.35006530841441E-07,-84.6189117431641
5.40006591877342E-07,-84.5935363769531
5.45006652913243E-07,-84.5694732666016
5.50006713949145E-07,-84.5480041503906
5.55006774985046E-07,-84.530403137207
5.60006836020948E-07,-84.5179443359375
5.65006897056849E-07,-84.5118942260742
5.7000695809275E-07,-84.5135345458984
5.75007019128651E-07,-84.5241470336914
5.80007080164553E-07,-84.5449905395508
5.85007141200454E-07,-84.5773468017578
5.90007202236355E-07,-84.6224899291992
5.95007263272257E-07,-84.6839370727539
6.00007324308158E-07,-84.7679061889648
6.05007385344059E-07,-84.8712615966797
6.10007446379961E-07,-84.9901885986328
6.15007507415862E-07,-85.1209030151367
6.20007568451763E-07,-85.2595901489258
6.25007629487665E-07,-85.4024505615234
6.30007690523566E-07,-85.5456924438477
6.35007751559467E-07,-85.6855010986328
6.40007812595369E-07,-85.8180923461914
6.4500787363127E-07,-85.9396591186523
6.50007934667171E-07,-86.0463943481445
6.55007995703072E-07,-86.1345062255859
6.60008056738974E-07,-86.200325012207
6.65008117774875E-07,-86.2439651489258
6.70008178810776E-07,-86.2688522338867
6.75008239846678E-07,-86.278434753418
6.80008300882579E-07,-86.276123046875
6.8500836191848E-07,-86.2653732299805
6.90008422954382E-07,-86.2495956420898
6.95008483990283E-07,-86.2322311401367
7.00008545026184E-07,-86.2167129516602
7.05008606062086E-07,-86.2064666748047
7.10008667097987E-07,-86.2049255371094
7.15008728133888E-07,-86.2155227661133
7.2000878916979E-07,-86.2416915893555
7.25008850205691E-07,-86.2868576049805
7.30008911241592E-07,-86.3498611450195
7.35008972277494E-07,-86.4260787963867
7.40009033313395E-07,-86.5137710571289
7.45009094349296E-07,-86.6111755371094
7.50009155385198E-07,-86.7165374755859
7.55009216421099E-07,-86.8281097412109
7.60009277457E-07,-86.9441375732422
7.65009338492901E-07,-87.062858581543
7.70009399528803E-07,-87.1825332641602
7.75009460564704E-07,-87.3013916015625
7.80009521600605E-07,-87.4177017211914
7.85009582636507E-07,-87.5296859741211
7.90009643672408E-07,-87.635612487793
7.95009704708309E-07,-87.736083984375
8.00009765744211E-07,-87.8375854492188
8.05009826780112E-07,-87.9400939941406
8.10009887816013E-07,-88.0430374145508
8.15009948851915E-07,-88.1458206176758
8.20010009887816E-07,-88.2478637695313
8.25010070923717E-07,-88.3485794067383
8.30010131959619E-07,-88.4473876953125
8.3501019299552E-07,-88.5436935424805
8.40010254031421E-07,-88.6369171142578
8.45010315067323E-07,-88.7264709472656
8.50010376103224E-07,-88.8117752075195
8.55010437139125E-07,-88.8922424316406
8.60010498175026E-07,-88.9660873413086
8.65010559210928E-07,-89.0189208984375
8.70010620246829E-07,-89.0510787963867
8.7501068128273E-07,-89.0681838989258
8.80010742318632E-07,-89.0758361816406
8.85010803354533E-07,-89.0796508789063
8.90010864390434E-07,-89.0852508544922
8.95010925426336E-07,-89.0982284545898
9.00010986462237E-07,-89.1242141723633
9.05011047498138E-07,-89.1688079833984
9.1001110853404E-07,-89.2376174926758
9.15011169569941E-07,-89.3362655639648
9.20011230605842E-07,-89.4703598022461
9.25011291641744E-07,-89.6455154418945
9.30011352677645E-07,-89.8737716674805
9.35011413713546E-07,-90.1569976806641
9.40011474749448E-07,-90.4855575561523
9.45011535785349E-07,-90.8497772216797
9.5001159682125E-07,-91.2400207519531
9.55011657857151E-07,-91.6466293334961
9.60011718893053E-07,-92.0599517822266
9.65011779928954E-07,-92.4703369140625
9.70011840964855E-07,-92.8681259155273
9.75011902000757E-07,-93.2436752319336
9.80011963036658E-07,-93.5873336791992
9.85012024072559E-07,-93.8894424438477
9.90012085108461E-07,-94.1403503417969
9.95012146144362E-07,-94.3424072265625
1.00001220718026E-06,-94.5284652709961
1.00501226821616E-06,-94.6992492675781
1.01001232925207E-06,-94.8526382446289
1.01501239028797E-06,-94.9865112304688
1.02001245132387E-06,-95.098747253418
1.02501251235977E-06,-95.1872100830078
1.03001257339567E-06,-95.2497863769531
1.03501263443157E-06,-95.2843399047852
1.04001269546747E-06,-95.2887573242188
1.04501275650338E-06,-95.2609100341797
1.05001281753928E-06,-95.1986770629883
1.05501287857518E-06,-95.0999221801758
1.06001293961108E-06,-94.9616622924805
1.06501300064698E-06,-94.7727508544922
1.07001306168288E-06,-94.5349807739258
1.07501312271878E-06,-94.2542114257813
1.08001318375468E-06,-93.9363021850586
1.08501324479059E-06,-93.5871353149414
1.09001330582649E-06,-93.2125701904297
1.09501336686239E-06,-92.8184814453125
1.10001342789829E-06,-92.4107208251953
1.10501348893419E-06,-91.9951705932617
1.11001354997009E-06,-91.5776901245117
1.11501361100599E-06,-91.1641540527344
1.1200136720419E-06,-90.7604217529297
1.1250137330778E-06,-90.3723678588867
1.1300137941137E-06,-89.9874649047852
1.1350138551496E-06,-89.5906982421875
1.1400139161855E-06,-89.184196472168
1.1450139772214E-06,-88.7700881958008
1.1500140382573E-06,-88.3505020141602
1.1550140992932E-06,-87.9275588989258
1.16001416032911E-06,-87.5033950805664
1.16501422136501E-06,-87.0801239013672
1.17001428240091E-06,-86.6598892211914
1.17501434343681E-06,-86.2448043823242
1.18001440447271E-06,-85.8370056152344
1.18501446550861E-06,-85.4386215209961
1.19001452654451E-06,-85.0517730712891
1.19501458758041E-06,-84.6752548217773
1.20001464861632E-06,-84.2999267578125
1.20501470965222E-06,-83.9261856079102
1.21001477068812E-06,-83.5552291870117
1.21501483172402E-06,-83.1882553100586
1.22001489275992E-06,-82.8264617919922
1.22501495379582E-06,-82.471061706543
1.23001501483172E-06,-82.1232528686523
1.23501507586763E-06,-81.7842330932617
1.24001513690353E-06,-81.4552154541016
1.24501519793943E-06,-81.1373825073242
1.25001525897533E-06,-80.8319549560547
1.25501532001123E-06,-80.5401153564453
1.26001538104713E-06,-80.2626800537109
1.26501544208303E-06,-79.9952774047852
1.27001550311893E-06,-79.7367858886719
1.27501556415484E-06,-79.4876251220703
1.28001562519074E-06,-79.2482376098633
1.28501568622664E-06,-79.0190658569336
1.29001574726254E-06,-78.8005447387695
1.29501580829844E-06,-78.5931091308594
1.30001586933434E-06,-78.3971939086914
1.30501593037024E-06,-78.2132415771484
1.31001599140614E-06,-78.0416870117188
1.31501605244205E-06,-77.8829650878906
1.32001611347795E-06,-77.7375183105469
1.32501617451385E-06,-77.6057815551758
1.33001623554975E-06,-77.4873733520508
1.33501629658565E-06,-77.3815460205078
1.34001635762155E-06,-77.2881927490234
1.34501641865745E-06,-77.2071990966797
1.35001647969336E-06,-77.1384582519531
1.35501654072926E-06,-77.0818557739258
1.36001660176516E-06,-77.0372924804688
1.36501666280106E-06,-77.0046463012695
1.37001672383696E-06,-76.9838180541992
1.37501678487286E-06,-76.9746932983398
1.38001684590876E-06,-76.9771575927734
1.38501690694466E-06,-76.9911117553711
1.39001696798057E-06,-77.0164413452148
1.39501702901647E-06,-77.0526733398438
1.40001709005237E-06,-77.0988311767578
1.40501715108827E-06,-77.1553115844727
1.41001721212417E-06,-77.2226104736328
1.41501727316007E-06,-77.3012466430664
1.42001733419597E-06,-77.3917007446289
1.42501739523188E-06,-77.4944839477539
1.43001745626778E-06,-77.6100997924805
1.43501751730368E-06,-77.7390518188477
1.44001757833958E-06,-77.8818283081055
1.44501763937548E-06,-78.0389404296875
1.45001770041138E-06,-78.2108917236328
1.45501776144728E-06,-78.3981781005859
1.46001782248318E-06,-78.6029281616211
1.46501788351909E-06,-78.8444213867188
1.47001794455499E-06,-79.1224746704102
1.47501800559089E-06,-79.429801940918
1.48001806662679E-06,-79.7591552734375
1.48501812766269E-06,-80.1032562255859
1.49001818869859E-06,-80.4548416137695
1.49501824973449E-06,-80.8066482543945
1.5000183107704E-06,-81.1514053344727
1.5050183718063E-06,-81.4818496704102
1.5100184328422E-06,-81.7907180786133
1.5150184938781E-06,-82.0707321166992
1.520018554914E-06,-82.3146362304688
1.5250186159499E-06,-82.5151596069336
1.5300186769858E-06,-82.6801834106445
1.5350187380217E-06,-82.8231430053711
1.54001879905761E-06,-82.9451217651367
1.54501886009351E-06,-83.0471954345703
1.55001892112941E-06,-83.1304321289063
1.55501898216531E-06,-83.1959228515625
1.56001904320121E-06,-83.2447357177734
1.56501910423711E-06,-83.2779541015625
1.57001916527301E-06,-83.2966461181641
1.57501922630891E-06,-83.3018951416016
1.58001928734482E-06,-83.2947845458984
1.58501934838072E-06,-83.2763748168945
1.59001940941662E-06,-83.2477569580078
1.59501947045252E-06,-83.2035446166992
1.60001953148842E-06,-83.1259536743164
1.60501959252432E-06,-83.0189895629883
1.61001965356022E-06,-82.8883438110352
1.61501971459613E-06,-82.7397003173828
1.62001977563203E-06,-82.5787582397461
1.62501983666793E-06,-82.4112091064453
1.63001989770383E-06,-82.2427520751953
1.63501995873973E-06,-82.0790786743164
1.64002001977563E-06,-81.9258804321289
1.64502008081153E-06,-81.7888488769531
1.65002014184743E-06,-81.6736831665039
1.65502020288334E-06,-81.586067199707
1.66002026391924E-06,-81.5302734375
1.66502032495514E-06,-81.4916534423828
1.67002038599104E-06,-81.4648742675781
1.67502044702694E-06,-81.4499053955078
1.68002050806284E-06,-81.4467086791992
1.68502056909874E-06,-81.4552612304688
1.69002063013465E-06,-81.4755172729492
1.69502069117055E-06,-81.5074615478516
1.70002075220645E-06,-81.5510559082031
1.70502081324235E-06,-81.6062622070313
1.71002087427825E-06,-81.6730575561523
1.71502093531415E-06,-81.7514114379883
1.72002099635005E-06,-81.8412780761719
1.72502105738595E-06,-81.9426422119141
1.73002111842186E-06,-82.0605316162109
1.73502117945776E-06,-82.1983795166016
1.74002124049366E-06,-82.3537521362305
1.74502130152956E-06,-82.5242385864258
1.75002136256546E-06,-82.707405090332
1.75502142360136E-06,-82.9008178710938
1.76002148463726E-06,-83.10205078125
1.76502154567316E-06,-83.3086929321289
1.77002160670907E-06,-83.5183029174805
1.77502166774497E-06,-83.7284545898438
1.78002172878087E-06,-83.9367294311523
1.78502178981677E-06,-84.1406860351563
1.79002185085267E-06,-84.3379135131836
1.79502191188857E-06,-84.532958984375
1.80002197292447E-06,-84.7450103759766
1.80502203396038E-06,-84.9710845947266
1.81002209499628E-06,-85.206428527832
1.81502215603218E-06,-85.4462966918945
1.82002221706808E-06,-85.6859130859375
1.82502227810398E-06,-85.9205322265625
1.83002233913988E-06,-86.145393371582
1.83502240017578E-06,-86.3557434082031
1.84002246121168E-06,-86.5468139648438
1.84502252224759E-06,-86.7138519287109
1.85002258328349E-06,-86.8521041870117
1.85502264431939E-06,-86.9568099975586
1.86002270535529E-06,-87.0233764648438
1.86502276639119E-06,-87.0519332885742
1.87002282742709E-06,-87.0467910766602
1.87502288846299E-06,-87.0122451782227
1.8800229494989E-06,-86.9525833129883
1.8850230105348E-06,-86.8721237182617
1.8900230715707E-06,-86.775146484375
1.8950231326066E-06,-86.6659622192383
1.9000231936425E-06,-86.5488586425781
1.9050232546784E-06,-86.4281463623047
1.9100233157143E-06,-86.30810546875
1.9150233767502E-06,-86.1930541992188
1.92002343778611E-06,-86.0872802734375
1.92502349882201E-06,-85.9950866699219
1.93002355985791E-06,-85.913932800293
1.93502362089381E-06,-85.8373184204102
1.94002368192971E-06,-85.7635726928711
1.94502374296561E-06,-85.6910095214844
1.95002380400151E-06,-85.6179580688477
1.95502386503741E-06,-85.5427551269531
1.96002392607332E-06,-85.4637222290039
1.96502398710922E-06,-85.3791809082031
1.97002404814512E-06,-85.287467956543
1.97502410918102E-06,-85.1869049072266
1.98002417021692E-06,-85.075813293457
1.98502423125282E-06,-84.952522277832
1.99002429228872E-06,-84.8153610229492
1.99502435332463E-06,-84.6634979248047
2.00002441436053E-06,-84.4991912841797
2.00502447539643E-06,-84.3235549926758
2.01002453643233E-06,-84.1375579833984
2.01502459746823E-06,-83.9421539306641
2.02002465850413E-06,-83.7382888793945
2.02502471954003E-06,-83.5269393920898
2.03002478057593E-06,-83.3090438842773
2.03502484161184E-06,-83.0855712890625
2.04002490264774E-06,-82.8574752807617
2.04502496368364E-06,-82.6257095336914
2.05002502471954E-06,-82.391242980957
2.05502508575544E-06,-82.1550140380859
2.06002514679134E-06,-81.9170837402344
2.06502520782724E-06,-81.667106628418
2.07002526886315E-06,-81.4040832519531
2.07502532989905E-06,-81.1307907104492
2.08002539093495E-06,-80.8500061035156
2.08502545197085E-06,-80.5644989013672
2.09002551300675E-06,-80.2770462036133
2.09502557404265E-06,-79.9904251098633
2.10002563507855E-06,-79.7074127197266
2.10502569611445E-06,-79.4307861328125
2.11002575715036E-06,-79.1633148193359
2.11502581818626E-06,-78.9077835083008
2.12002587922216E-06,-78.6669540405273
2.12502594025806E-06,-78.4436111450195
2.13002600129396E-06,-78.2321472167969
2.13502606232986E-06,-78.0256729125977
2.14002612336576E-06,-77.8250350952148
2.14502618440166E-06,-77.6310882568359
2.15002624543757E-06,-77.4446868896484
2.15502630647347E-06,-77.2666854858398
2.16002636750937E-06,-77.0979385375977
2.16502642854527E-06,-76.9393005371094
2.17002648958117E-06,-76.7916107177734
2.17502655061707E-06,-76.6557388305664
2.18002661165297E-06,-76.5325241088867
2.18502667268888E-06,-76.4228286743164
2.19002673372478E-06,-76.3274993896484
2.19502679476068E-06,-76.2464294433594
2.20002685579658E-06,-76.1769561767578
2.20502691683248E-06,-76.1189422607422
2.21002697786838E-06,-76.0724868774414
2.21502703890428E-06,-76.0376739501953
2.22002709994018E-06,-76.0145950317383
2.22502716097609E-06,-76.0033493041992
2.23002722201199E-06,-76.0040130615234
2.23502728304789E-06,-76.0166931152344
2.24002734408379E-06,-76.0414733886719
2.24502740511969E-06,-76.0784454345703
2.25002746615559E-06,-76.1277008056641
2.25502752719149E-06,-76.1893310546875
2.2600275882274E-06,-76.2633590698242
2.2650276492633E-06,-76.3491363525391
2.2700277102992E-06,-76.4465713500977
2.2750277713351E-06,-76.5558013916016
2.280027832371E-06,-76.6769866943359
2.2850278934069E-06,-76.8102798461914
2.2900279544428E-06,-76.9558258056641
2.2950280154787E-06,-77.11376953125
2.30002807651461E-06,-77.2842788696289
2.30502813755051E-06,-77.4674911499023
2.31002819858641E-06,-77.6635665893555
2.31502825962231E-06,-77.8726425170898
2.32002832065821E-06,-78.0948867797852
2.32502838169411E-06,-78.3304290771484
2.33002844273001E-06,-78.5919036865234
2.33502850376592E-06,-78.8876571655273
2.34002856480182E-06,-79.2114486694336
2.34502862583772E-06,-79.5570373535156
2.35002868687362E-06,-79.9181976318359
2.35502874790952E-06,-80.2886810302734
2.36002880894542E-06,-80.6622467041016
2.36502886998132E-06,-81.0326614379883
2.37002893101722E-06,-81.3936920166016
2.37502899205313E-06,-81.7390823364258
2.38002905308903E-06,-82.062614440918
2.38502911412493E-06,-82.3580322265625
2.39002917516083E-06,-82.6191101074219
2.39502923619673E-06,-82.8486251831055
2.40002929723263E-06,-83.0712890625
2.40502935826853E-06,-83.2865753173828
2.41002941930443E-06,-83.4917678833008
2.41502948034034E-06,-83.6841354370117
2.42002954137624E-06,-83.8609619140625
2.42502960241214E-06,-84.01953125
2.43002966344804E-06,-84.157112121582
2.43502972448394E-06,-84.27099609375
2.44002978551984E-06,-84.3584518432617
2.44502984655574E-06,-84.4167633056641
2.45002990759165E-06,-84.4432144165039
2.45502996862755E-06,-84.4350738525391
2.46003002966345E-06,-84.3883972167969
2.46503009069935E-06,-84.2875518798828
