Trace
Swept SA
A.19.55,N9020B
508 AB2 B25 B40 B85 DP2 DP4 EP2 FS1 FS2 MPB RTL ,01
Segment,0
Number of Points,81920
Sweep Time,0.0004096
Start Frequency,2400000000
Stop Frequency,2400000000
Average Count,0
Average Type,LogPower(Video)
RBW,3000000
RBW Filter,Gaussian
RBW Filter BW,3dB
VBW,3000000
Sweep Type,Swept
X Axis Scale,Lin
PreAmp State,Off
PreAmp Band,Low
Trigger Source,Ext1
Trigger Level,1.2
Trigger Slope,Positive
Trigger Delay,1E-06
Phase Noise Optimization,Fast
Swept If Gain,Low
FFT If Gain,Autorange
RF Coupling,AC
FFT Width,411900
Ext Ref,10000000
Input,RF
RF Calibrator,Off
Attenuation,6
Ref Level Offset,0
External Gain,0
Trace Type,Clearwrite
Detector,Normal
Trace Math,Off
Trace Math Oper1,Trace5
Trace Math Oper2,Trace6
Trace Math Offset,0
Normalize,Off
Trace Name,Trace1
X Axis Units,s
Y Axis Units,dBm
DATA
0,-46.5354309082031
5.00006103590132E-09,-47.2289848327637
1.00001220718026E-08,-47.9074478149414
1.50001831077039E-08,-48.5681800842285
2.00002441436053E-08,-49.2085266113281
2.50003051795066E-08,-49.8258476257324
3.00003662154079E-08,-50.4174919128418
3.50004272513092E-08,-50.9808197021484
4.00004882872105E-08,-51.5131759643555
4.50005493231118E-08,-52.0119209289551
5.00006103590132E-08,-52.4744071960449
5.50006713949145E-08,-52.8979873657227
6.00007324308158E-08,-53.2800140380859
6.50007934667171E-08,-53.6194610595703
7.00008545026184E-08,-53.9187088012695
7.50009155385197E-08,-54.1805305480957
8.00009765744211E-08,-54.4077110290527
8.50010376103224E-08,-54.60302734375
9.00010986462237E-08,-54.7692565917969
9.5001159682125E-08,-54.9091835021973
1.00001220718026E-07,-55.0255851745605
1.05001281753928E-07,-55.1212387084961
1.10001342789829E-07,-55.1989250183105
1.1500140382573E-07,-55.2614212036133
1.20001464861632E-07,-55.3115119934082
1.25001525897533E-07,-55.3519744873047
1.30001586933434E-07,-55.3630065917969
1.35001647969336E-07,-55.3281288146973
1.40001709005237E-07,-55.2550964355469
1.45001770041138E-07,-55.1516609191895
1.50001831077039E-07,-55.0255737304688
1.55001892112941E-07,-54.884593963623
1.60001953148842E-07,-54.7364768981934
1.65002014184743E-07,-54.5889663696289
1.70002075220645E-07,-54.4498252868652
1.75002136256546E-07,-54.3268051147461
1.80002197292447E-07,-54.2276573181152
1.85002258328349E-07,-54.1601371765137
1.9000231936425E-07,-54.1319999694824
1.95002380400151E-07,-54.1474533081055
2.00002441436053E-07,-54.1969184875488
2.05002502471954E-07,-54.2749481201172
2.10002563507855E-07,-54.3767585754395
2.15002624543757E-07,-54.4975509643555
2.20002685579658E-07,-54.6325416564941
2.25002746615559E-07,-54.7769317626953
2.30002807651461E-07,-54.9259338378906
2.35002868687362E-07,-55.0747566223145
2.40002929723263E-07,-55.2186050415039
2.45002990759165E-07,-55.3526954650879
2.50003051795066E-07,-55.4722328186035
2.55003112830967E-07,-55.5724220275879
2.60003173866868E-07,-55.6496238708496
2.6500323490277E-07,-55.7154312133789
2.70003295938671E-07,-55.7743339538574
2.75003356974572E-07,-55.8266105651855
2.80003418010474E-07,-55.8725395202637
2.85003479046375E-07,-55.9123992919922
2.90003540082276E-07,-55.946475982666
2.95003601118178E-07,-55.9750442504883
3.00003662154079E-07,-55.9983863830566
3.0500372318998E-07,-56.0167808532715
3.10003784225882E-07,-56.0305061340332
3.15003845261783E-07,-56.0398483276367
3.20003906297684E-07,-56.0450820922852
3.25003967333586E-07,-56.0464897155762
3.30004028369487E-07,-56.0380554199219
3.35004089405388E-07,-56.0154113769531
3.4000415044129E-07,-55.9812850952148
3.45004211477191E-07,-55.938419342041
3.50004272513092E-07,-55.8895454406738
3.55004333548993E-07,-55.8373985290527
3.60004394584895E-07,-55.7847175598145
3.65004455620796E-07,-55.7342338562012
3.70004516656697E-07,-55.6886863708496
3.75004577692599E-07,-55.6508102416992
3.800046387285E-07,-55.6233406066895
3.85004699764401E-07,-55.6090126037598
3.90004760800303E-07,-55.6105613708496
3.95004821836204E-07,-55.6301918029785
4.00004882872105E-07,-55.6665077209473
4.05004943908007E-07,-55.7170143127441
4.10005004943908E-07,-55.7792510986328
4.15005065979809E-07,-55.8507690429688
4.20005127015711E-07,-55.9291076660156
4.25005188051612E-07,-56.0118064880371
4.30005249087513E-07,-56.0964164733887
4.35005310123415E-07,-56.180477142334
4.40005371159316E-07,-56.2615356445313
4.45005432195217E-07,-56.3371276855469
4.50005493231119E-07,-56.4048042297363
4.5500555426702E-07,-56.4621047973633
4.60005615302921E-07,-56.5075035095215
4.65005676338822E-07,-56.5509605407715
4.70005737374724E-07,-56.5948257446289
4.75005798410625E-07,-56.6378288269043
4.80005859446526E-07,-56.6786994934082
4.85005920482428E-07,-56.7161560058594
4.90005981518329E-07,-56.7489318847656
4.9500604255423E-07,-56.775749206543
5.00006103590132E-07,-56.795337677002
5.05006164626033E-07,-56.8064231872559
5.10006225661934E-07,-56.807731628418
5.15006286697836E-07,-56.7979927062988
5.20006347733737E-07,-56.7759284973145
5.25006408769638E-07,-56.7402687072754
5.3000646980554E-07,-56.6861877441406
5.35006530841441E-07,-56.6118545532227
5.40006591877342E-07,-56.5204734802246
5.45006652913243E-07,-56.4152488708496
5.50006713949145E-07,-56.299388885498
5.55006774985046E-07,-56.1761016845703
5.60006836020948E-07,-56.0485916137695
5.65006897056849E-07,-55.9200630187988
5.7000695809275E-07,-55.7937202453613
5.75007019128651E-07,-55.672779083252
5.80007080164553E-07,-55.5604362487793
5.85007141200454E-07,-55.459903717041
5.90007202236355E-07,-55.374382019043
5.95007263272257E-07,-55.3044013977051
6.00007324308158E-07,-55.2426414489746
6.05007385344059E-07,-55.187816619873
6.10007446379961E-07,-55.1392478942871
6.15007507415862E-07,-55.0962524414063
6.20007568451763E-07,-55.0581436157227
6.25007629487665E-07,-55.0242385864258
6.30007690523566E-07,-54.9938507080078
6.35007751559467E-07,-54.9663009643555
6.40007812595369E-07,-54.9409065246582
6.4500787363127E-07,-54.9169769287109
6.50007934667171E-07,-54.8938369750977
6.55007995703072E-07,-54.8707962036133
6.60008056738974E-07,-54.8482437133789
6.65008117774875E-07,-54.8384666442871
6.70008178810776E-07,-54.8422508239746
6.75008239846678E-07,-54.8558807373047
6.80008300882579E-07,-54.8756370544434
6.8500836191848E-07,-54.8978042602539
6.90008422954382E-07,-54.9186744689941
6.95008483990283E-07,-54.9345245361328
7.00008545026184E-07,-54.9416465759277
7.05008606062086E-07,-54.9363212585449
7.10008667097987E-07,-54.9148330688477
7.15008728133888E-07,-54.8734703063965
7.2000878916979E-07,-54.8085136413574
7.25008850205691E-07,-54.716251373291
7.30008911241592E-07,-54.5875091552734
7.35008972277494E-07,-54.420238494873
7.40009033313395E-07,-54.2214088439941
7.45009094349296E-07,-53.9979934692383
7.50009155385198E-07,-53.7569732666016
7.55009216421099E-07,-53.505313873291
7.60009277457E-07,-53.2499923706055
7.65009338492901E-07,-52.9979820251465
7.70009399528803E-07,-52.7562561035156
7.75009460564704E-07,-52.5317878723145
7.80009521600605E-07,-52.3315467834473
7.85009582636507E-07,-52.1625099182129
7.90009643672408E-07,-52.0316543579102
7.95009704708309E-07,-51.9423751831055
8.00009765744211E-07,-51.8850059509277
8.05009826780112E-07,-51.8549575805664
8.10009887816013E-07,-51.8483238220215
8.15009948851915E-07,-51.8612098693848
8.20010009887816E-07,-51.8897094726563
8.25010070923717E-07,-51.9299240112305
8.30010131959619E-07,-51.9779510498047
8.3501019299552E-07,-52.0298919677734
8.40010254031421E-07,-52.081844329834
8.45010315067323E-07,-52.1299057006836
8.50010376103224E-07,-52.1701774597168
8.55010437139125E-07,-52.1987533569336
8.60010498175026E-07,-52.2121086120605
8.65010559210928E-07,-52.2130393981934
8.70010620246829E-07,-52.2051124572754
8.7501068128273E-07,-52.1909027099609
8.80010742318632E-07,-52.1729774475098
8.85010803354533E-07,-52.1539115905762
8.90010864390434E-07,-52.1362762451172
8.95010925426336E-07,-52.1226425170898
9.00010986462237E-07,-52.1155815124512
9.05011047498138E-07,-52.1176681518555
9.1001110853404E-07,-52.1314735412598
9.15011169569941E-07,-52.1595687866211
9.20011230605842E-07,-52.2045249938965
9.25011291641744E-07,-52.268913269043
9.30011352677645E-07,-52.3575553894043
9.35011413713546E-07,-52.4708366394043
9.40011474749448E-07,-52.6046676635742
9.45011535785349E-07,-52.7549743652344
9.5001159682125E-07,-52.917667388916
9.55011657857151E-07,-53.0886688232422
9.60011718893053E-07,-53.2638969421387
9.65011779928954E-07,-53.4392623901367
9.70011840964855E-07,-53.6106872558594
9.75011902000757E-07,-53.7740936279297
9.80011963036658E-07,-53.9253921508789
9.85012024072559E-07,-54.0605010986328
9.90012085108461E-07,-54.1753425598145
9.95012146144362E-07,-54.268970489502
1.00001220718026E-06,-54.3499450683594
1.00501226821616E-06,-54.4201202392578
1.01001232925207E-06,-54.480655670166
1.01501239028797E-06,-54.5327186584473
1.02001245132387E-06,-54.5774688720703
1.02501251235977E-06,-54.6160736083984
1.03001257339567E-06,-54.6496925354004
1.03501263443157E-06,-54.6794929504395
1.04001269546747E-06,-54.7066345214844
1.04501275650338E-06,-54.7322845458984
1.05001281753928E-06,-54.7576065063477
1.05501287857518E-06,-54.783763885498
1.06001293961108E-06,-54.8123550415039
1.06501300064698E-06,-54.8489570617676
1.07001306168288E-06,-54.8925933837891
1.07501312271878E-06,-54.9402313232422
1.08001318375468E-06,-54.9888381958008
1.08501324479059E-06,-55.0353851318359
1.09001330582649E-06,-55.0768394470215
1.09501336686239E-06,-55.1101722717285
1.10001342789829E-06,-55.1323471069336
1.10501348893419E-06,-55.1403388977051
1.11001354997009E-06,-55.1311111450195
1.11501361100599E-06,-55.1016311645508
1.1200136720419E-06,-55.0488739013672
1.1250137330778E-06,-54.9698066711426
1.1300137941137E-06,-54.854320526123
1.1350138551496E-06,-54.698974609375
1.1400139161855E-06,-54.5107383728027
1.1450139772214E-06,-54.2965698242188
1.1500140382573E-06,-54.0634384155273
1.1550140992932E-06,-53.818302154541
1.16001416032911E-06,-53.5681304931641
1.16501422136501E-06,-53.3198852539063
1.17001428240091E-06,-53.0805320739746
1.17501434343681E-06,-52.8570289611816
1.18001440447271E-06,-52.6563491821289
1.18501446550861E-06,-52.4854507446289
1.19001452654451E-06,-52.3512992858887
1.19501458758041E-06,-52.2568435668945
1.20001464861632E-06,-52.1911926269531
1.20501470965222E-06,-52.1501197814941
1.21001477068812E-06,-52.1302032470703
1.21501483172402E-06,-52.1280288696289
1.22001489275992E-06,-52.1401710510254
1.22501495379582E-06,-52.1632194519043
1.23001501483172E-06,-52.1937522888184
1.23501507586763E-06,-52.2283515930176
1.24001513690353E-06,-52.263599395752
1.24501519793943E-06,-52.2960777282715
1.25001525897533E-06,-52.3223648071289
1.25501532001123E-06,-52.3390464782715
1.26001538104713E-06,-52.3431205749512
1.26501544208303E-06,-52.3381423950195
1.27001550311893E-06,-52.3272552490234
1.27501556415484E-06,-52.3123207092285
1.28001562519074E-06,-52.2952041625977
1.28501568622664E-06,-52.2777671813965
1.29001574726254E-06,-52.2618789672852
1.29501580829844E-06,-52.249397277832
1.30001586933434E-06,-52.2421913146973
1.30501593037024E-06,-52.2421188354492
1.31001599140614E-06,-52.251049041748
1.31501605244205E-06,-52.2708473205566
1.32001611347795E-06,-52.3033714294434
1.32501617451385E-06,-52.3504905700684
1.33001623554975E-06,-52.4140167236328
1.33501629658565E-06,-52.4930839538574
1.34001635762155E-06,-52.5855560302734
1.34501641865745E-06,-52.6892967224121
1.35001647969336E-06,-52.8021583557129
1.35501654072926E-06,-52.922004699707
1.36001660176516E-06,-53.0466918945313
1.36501666280106E-06,-53.1740837097168
1.37001672383696E-06,-53.3020401000977
1.37501678487286E-06,-53.4284210205078
1.38001684590876E-06,-53.551082611084
1.38501690694466E-06,-53.6678848266602
1.39001696798057E-06,-53.7766914367676
1.39501702901647E-06,-53.8783378601074
1.40001709005237E-06,-53.9809837341309
1.40501715108827E-06,-54.0845413208008
1.41001721212417E-06,-54.1882019042969
1.41501727316007E-06,-54.2911529541016
1.42001733419597E-06,-54.3925819396973
1.42501739523188E-06,-54.4916839599609
1.43001745626778E-06,-54.587646484375
1.43501751730368E-06,-54.6796569824219
1.44001757833958E-06,-54.7669067382813
1.44501763937548E-06,-54.8485870361328
1.45001770041138E-06,-54.9238891601563
1.45501776144728E-06,-54.992000579834
1.46001782248318E-06,-55.0533714294434
1.46501788351909E-06,-55.1225814819336
1.47001794455499E-06,-55.200553894043
1.47501800559089E-06,-55.2828788757324
1.48001806662679E-06,-55.3651542663574
1.48501812766269E-06,-55.4429817199707
1.49001818869859E-06,-55.5119552612305
1.49501824973449E-06,-55.5676689147949
1.5000183107704E-06,-55.6057243347168
1.5050183718063E-06,-55.621711730957
1.5100184328422E-06,-55.6112327575684
1.5150184938781E-06,-55.5698852539063
1.520018554914E-06,-55.4932632446289
1.5250186159499E-06,-55.3769607543945
1.5300186769858E-06,-55.2165832519531
1.5350187380217E-06,-55.0140762329102
1.54001879905761E-06,-54.7745590209961
1.54501886009351E-06,-54.5031394958496
1.55001892112941E-06,-54.2049369812012
1.55501898216531E-06,-53.885066986084
1.56001904320121E-06,-53.548641204834
1.56501910423711E-06,-53.2007789611816
1.57001916527301E-06,-52.8465881347656
1.57501922630891E-06,-52.4911918640137
1.58001928734482E-06,-52.1397018432617
1.58501934838072E-06,-51.7972297668457
1.59001940941662E-06,-51.4688911437988
1.59501947045252E-06,-51.1504325866699
1.60001953148842E-06,-50.8161354064941
1.60501959252432E-06,-50.4680099487305
1.61001965356022E-06,-50.1103935241699
1.61501971459613E-06,-49.7476234436035
1.62001977563203E-06,-49.3840408325195
1.62501983666793E-06,-49.0239868164063
1.63001989770383E-06,-48.6717910766602
1.63501995873973E-06,-48.3317985534668
1.64002001977563E-06,-48.0083465576172
1.64502008081153E-06,-47.7057685852051
1.65002014184743E-06,-47.428409576416
1.65502020288334E-06,-47.1806030273438
1.66002026391924E-06,-46.9688301086426
1.66502032495514E-06,-46.8199882507324
1.67002038599104E-06,-46.7304992675781
1.67502044702694E-06,-46.6869163513184
1.68002050806284E-06,-46.6757850646973
1.68502056909874E-06,-46.683650970459
1.69002063013465E-06,-46.6970596313477
1.69502069117055E-06,-46.702564239502
1.70002075220645E-06,-46.6867065429688
1.70502081324235E-06,-46.6360359191895
1.71002087427825E-06,-46.5371017456055
1.71502093531415E-06,-46.3764495849609
1.72002099635005E-06,-46.1406211853027
1.72502105738595E-06,-45.8161697387695
1.73002111842186E-06,-45.3856544494629
1.73502117945776E-06,-44.8523063659668
1.74002124049366E-06,-44.2337112426758
1.74502130152956E-06,-43.5474395751953
1.75002136256546E-06,-42.8110694885254
1.75502142360136E-06,-42.0421752929688
1.76002148463726E-06,-41.2583351135254
1.76502154567316E-06,-40.4771270751953
1.77002160670907E-06,-39.7161254882813
1.77502166774497E-06,-38.9929046630859
1.78002172878087E-06,-38.3250465393066
1.78502178981677E-06,-37.7301177978516
1.79002185085267E-06,-37.2257041931152
1.79502191188857E-06,-36.8166923522949
1.80002197292447E-06,-36.4685707092285
1.80502203396038E-06,-36.1726951599121
1.81002209499628E-06,-35.9231491088867
1.81502215603218E-06,-35.7140350341797
1.82002221706808E-06,-35.5394325256348
1.82502227810398E-06,-35.393440246582
1.83002233913988E-06,-35.2701454162598
1.83502240017578E-06,-35.1636352539063
1.84002246121168E-06,-35.0680084228516
1.84502252224759E-06,-34.977352142334
1.85002258328349E-06,-34.8857536315918
1.85502264431939E-06,-34.7873077392578
1.86002270535529E-06,-34.6750144958496
1.86502276639119E-06,-34.53369140625
1.87002282742709E-06,-34.3684883117676
1.87502288846299E-06,-34.1901550292969
1.8800229494989E-06,-34.0094413757324
1.8850230105348E-06,-33.837100982666
1.8900230715707E-06,-33.6838836669922
1.8950231326066E-06,-33.5605354309082
1.9000231936425E-06,-33.4778137207031
1.9050232546784E-06,-33.4464683532715
1.9100233157143E-06,-33.4772453308105
1.9150233767502E-06,-33.5808982849121
1.92002343778611E-06,-33.768180847168
1.92502349882201E-06,-34.0498390197754
1.93002355985791E-06,-34.4455757141113
1.93502362089381E-06,-34.9566955566406
1.94002368192971E-06,-35.5663452148438
1.94502374296561E-06,-36.257682800293
1.95002380400151E-06,-37.0138549804688
1.95502386503741E-06,-37.8180160522461
1.96002392607332E-06,-38.6533126831055
1.96502398710922E-06,-39.5028953552246
1.97002404814512E-06,-40.3499221801758
1.97502410918102E-06,-41.1775398254395
1.98002417021692E-06,-41.9688987731934
1.98502423125282E-06,-42.7071533203125
1.99002429228872E-06,-43.3754501342773
1.99502435332463E-06,-43.976188659668
2.00002441436053E-06,-44.5619926452637
2.00502447539643E-06,-45.1355018615723
2.01002453643233E-06,-45.6948318481445
2.01502459746823E-06,-46.2380981445313
2.02002465850413E-06,-46.7634048461914
2.02502471954003E-06,-47.2688636779785
2.03002478057593E-06,-47.7525939941406
2.03502484161184E-06,-48.212703704834
2.04002490264774E-06,-48.6473045349121
2.04502496368364E-06,-49.0545082092285
2.05002502471954E-06,-49.4324264526367
2.05502508575544E-06,-49.7791709899902
2.06002514679134E-06,-50.0919761657715
2.06502520782724E-06,-50.3597793579102
2.07002526886315E-06,-50.5841522216797
2.07502532989905E-06,-50.7707099914551
2.08002539093495E-06,-50.9250907897949
2.08502545197085E-06,-51.0529174804688
2.09002551300675E-06,-51.1598167419434
2.09502557404265E-06,-51.2514190673828
2.10002563507855E-06,-51.3333473205566
2.10502569611445E-06,-51.4112319946289
2.11002575715036E-06,-51.4906997680664
2.11502581818626E-06,-51.5773811340332
2.12002587922216E-06,-51.6768989562988
2.12502594025806E-06,-51.7948799133301
2.13002600129396E-06,-51.9227981567383
2.13502606232986E-06,-52.0486068725586
2.14002612336576E-06,-52.1726455688477
2.14502618440166E-06,-52.2952690124512
2.15002624543757E-06,-52.416820526123
2.15502630647347E-06,-52.5376434326172
2.16002636750937E-06,-52.6580924987793
2.16502642854527E-06,-52.778507232666
2.17002648958117E-06,-52.8992385864258
2.17502655061707E-06,-53.0206336975098
2.18002661165297E-06,-53.1430397033691
2.18502667268888E-06,-53.2667999267578
2.19002673372478E-06,-53.3922653198242
2.19502679476068E-06,-53.5210456848145
2.20002685579658E-06,-53.6566467285156
2.20502691683248E-06,-53.7976875305176
2.21002697786838E-06,-53.9424362182617
2.21502703890428E-06,-54.0891571044922
2.22002709994018E-06,-54.2361145019531
2.22502716097609E-06,-54.3815803527832
2.23002722201199E-06,-54.5238189697266
2.23502728304789E-06,-54.6610908508301
2.24002734408379E-06,-54.7916679382324
2.24502740511969E-06,-54.9138145446777
2.25002746615559E-06,-55.0257987976074
2.25502752719149E-06,-55.1258850097656
2.2600275882274E-06,-55.212345123291
2.2650276492633E-06,-55.2845573425293
2.2700277102992E-06,-55.3440818786621
2.2750277713351E-06,-55.3927230834961
2.280027832371E-06,-55.4322776794434
2.2850278934069E-06,-55.4645538330078
2.2900279544428E-06,-55.4913482666016
2.2950280154787E-06,-55.5144653320313
2.30002807651461E-06,-55.5357055664063
2.30502813755051E-06,-55.5568695068359
2.31002819858641E-06,-55.579761505127
2.31502825962231E-06,-55.6061820983887
2.32002832065821E-06,-55.6379318237305
2.32502838169411E-06,-55.676815032959
2.33002844273001E-06,-55.7232513427734
2.33502850376592E-06,-55.7755165100098
2.34002856480182E-06,-55.8321876525879
2.34502862583772E-06,-55.8918380737305
2.35002868687362E-06,-55.9530487060547
2.35502874790952E-06,-56.0143928527832
2.36002880894542E-06,-56.0744514465332
2.36502886998132E-06,-56.1317977905273
2.37002893101722E-06,-56.1850128173828
2.37502899205313E-06,-56.2326698303223
2.38002905308903E-06,-56.2733421325684
2.38502911412493E-06,-56.3056144714355
2.39002917516083E-06,-56.3280601501465
2.39502923619673E-06,-56.3393325805664
2.40002929723263E-06,-56.3396072387695
2.40502935826853E-06,-56.3303451538086
2.41002941930443E-06,-56.3130302429199
2.41502948034034E-06,-56.2891540527344
2.42002954137624E-06,-56.2602119445801
2.42502960241214E-06,-56.2276954650879
2.43002966344804E-06,-56.1930923461914
2.43502972448394E-06,-56.1578941345215
2.44002978551984E-06,-56.123592376709
2.44502984655574E-06,-56.0916786193848
2.45002990759165E-06,-56.0636405944824
2.45502996862755E-06,-56.0409774780273
2.46003002966345E-06,-56.0249710083008
2.46503009069935E-06,-56.0138740539551
