Trace
Swept SA
A.19.55,N9020B
508 AB2 B25 B40 B85 DP2 DP4 EP2 FS1 FS2 MPB RTL ,01
Segment,0
Number of Points,81920
Sweep Time,0.0004096
Start Frequency,2400000000
Stop Frequency,2400000000
Average Count,0
Average Type,LogPower(Video)
RBW,3000000
RBW Filter,Gaussian
RBW Filter BW,3dB
VBW,3000000
Sweep Type,Swept
X Axis Scale,Lin
PreAmp State,Off
PreAmp Band,Low
Trigger Source,Ext1
Trigger Level,1.2
Trigger Slope,Positive
Trigger Delay,1E-06
Phase Noise Optimization,Fast
Swept If Gain,Low
FFT If Gain,Autorange
RF Coupling,AC
FFT Width,411900
Ext Ref,10000000
Input,RF
RF Calibrator,Off
Attenuation,6
Ref Level Offset,0
External Gain,0
Trace Type,Clearwrite
Detector,Normal
Trace Math,Off
Trace Math Oper1,Trace5
Trace Math Oper2,Trace6
Trace Math Offset,0
Normalize,Off
Trace Name,Trace1
X Axis Units,s
Y Axis Units,dBm
DATA
0,-50.189640045166
5.00006103590132E-09,-50.1344566345215
1.00001220718026E-08,-50.0343589782715
1.50001831077039E-08,-49.8968276977539
2.00002441436053E-08,-49.7293434143066
2.50003051795066E-08,-49.5393943786621
3.00003662154079E-08,-49.3344650268555
3.50004272513092E-08,-49.1220283508301
4.00004882872105E-08,-48.9095802307129
4.50005493231118E-08,-48.7045936584473
5.00006103590132E-08,-48.5145568847656
5.50006713949145E-08,-48.3469543457031
6.00007324308158E-08,-48.2065544128418
6.50007934667171E-08,-48.0644035339355
7.00008545026184E-08,-47.9133567810059
7.50009155385197E-08,-47.7568016052246
8.00009765744211E-08,-47.5981254577637
8.50010376103224E-08,-47.4407196044922
9.00010986462237E-08,-47.287971496582
9.5001159682125E-08,-47.1432685852051
1.00001220718026E-07,-47.0100021362305
1.05001281753928E-07,-46.8915557861328
1.10001342789829E-07,-46.7913246154785
1.1500140382573E-07,-46.7126922607422
1.20001464861632E-07,-46.6590461730957
1.25001525897533E-07,-46.6337776184082
1.30001586933434E-07,-46.6271896362305
1.35001647969336E-07,-46.6289405822754
1.40001709005237E-07,-46.6414604187012
1.45001770041138E-07,-46.667179107666
1.50001831077039E-07,-46.7085227966309
1.55001892112941E-07,-46.7679252624512
1.60001953148842E-07,-46.8478050231934
1.65002014184743E-07,-46.9505996704102
1.70002075220645E-07,-47.0787353515625
1.75002136256546E-07,-47.2346420288086
1.80002197292447E-07,-47.4207420349121
1.85002258328349E-07,-47.6394729614258
1.9000231936425E-07,-47.8932571411133
1.95002380400151E-07,-48.1831588745117
2.00002441436053E-07,-48.5054626464844
2.05002502471954E-07,-48.8586730957031
2.10002563507855E-07,-49.2415618896484
2.15002624543757E-07,-49.652904510498
2.20002685579658E-07,-50.0914726257324
2.25002746615559E-07,-50.5560417175293
2.30002807651461E-07,-51.0453872680664
2.35002868687362E-07,-51.5582809448242
2.40002929723263E-07,-52.0935020446777
2.45002990759165E-07,-52.6498146057129
2.50003051795066E-07,-53.226001739502
2.55003112830967E-07,-53.8208351135254
2.60003173866868E-07,-54.438060760498
2.6500323490277E-07,-55.1357650756836
2.70003295938671E-07,-55.9158096313477
2.75003356974572E-07,-56.7588195800781
2.80003418010474E-07,-57.6454162597656
2.85003479046375E-07,-58.5562133789063
2.90003540082276E-07,-59.4718360900879
2.95003601118178E-07,-60.3729019165039
3.00003662154079E-07,-61.2400321960449
3.0500372318998E-07,-62.0538520812988
3.10003784225882E-07,-62.7949714660645
3.15003845261783E-07,-63.444019317627
3.20003906297684E-07,-63.9816131591797
3.25003967333586E-07,-64.3883743286133
3.30004028369487E-07,-64.6712188720703
3.35004089405388E-07,-64.8564682006836
3.4000415044129E-07,-64.9538497924805
3.45004211477191E-07,-64.9730987548828
3.50004272513092E-07,-64.923942565918
3.55004333548993E-07,-64.8161163330078
3.60004394584895E-07,-64.6593322753906
3.65004455620796E-07,-64.4633407592773
3.70004516656697E-07,-64.2378540039063
3.75004577692599E-07,-63.9926109313965
3.800046387285E-07,-63.7373390197754
3.85004699764401E-07,-63.4817695617676
3.90004760800303E-07,-63.2356262207031
3.95004821836204E-07,-62.9899444580078
4.00004882872105E-07,-62.693416595459
4.05004943908007E-07,-62.3505592346191
4.10005004943908E-07,-61.9705505371094
4.15005065979809E-07,-61.5625610351563
4.20005127015711E-07,-61.1357727050781
4.25005188051612E-07,-60.6993598937988
4.30005249087513E-07,-60.2625007629395
4.35005310123415E-07,-59.8343734741211
4.40005371159316E-07,-59.4241523742676
4.45005432195217E-07,-59.0410194396973
4.50005493231119E-07,-58.6941413879395
4.5500555426702E-07,-58.3927040100098
4.60005615302921E-07,-58.1427192687988
4.65005676338822E-07,-57.910572052002
4.70005737374724E-07,-57.6875152587891
4.75005798410625E-07,-57.4770431518555
4.80005859446526E-07,-57.282642364502
4.85005920482428E-07,-57.1077995300293
4.90005981518329E-07,-56.9560050964355
4.9500604255423E-07,-56.8307456970215
5.00006103590132E-07,-56.7355079650879
5.05006164626033E-07,-56.6737823486328
5.10006225661934E-07,-56.649055480957
5.15006286697836E-07,-56.6648178100586
5.20006347733737E-07,-56.7245559692383
5.25006408769638E-07,-56.8317565917969
5.3000646980554E-07,-57.0136566162109
5.35006530841441E-07,-57.2847518920898
5.40006591877342E-07,-57.6294479370117
5.45006652913243E-07,-58.0321311950684
5.50006713949145E-07,-58.4771995544434
5.55006774985046E-07,-58.949047088623
5.60006836020948E-07,-59.4320678710938
5.65006897056849E-07,-59.9106597900391
5.7000695809275E-07,-60.369213104248
5.75007019128651E-07,-60.7921295166016
5.80007080164553E-07,-61.1637992858887
5.85007141200454E-07,-61.4686126708984
5.90007202236355E-07,-61.690975189209
5.95007263272257E-07,-61.823600769043
6.00007324308158E-07,-61.8890609741211
6.05007385344059E-07,-61.8973617553711
6.10007446379961E-07,-61.856876373291
6.15007507415862E-07,-61.7759742736816
6.20007568451763E-07,-61.6630210876465
6.25007629487665E-07,-61.5263938903809
6.30007690523566E-07,-61.3744583129883
6.35007751559467E-07,-61.2155914306641
6.40007812595369E-07,-61.0581550598145
6.4500787363127E-07,-60.9105262756348
6.50007934667171E-07,-60.7810707092285
6.55007995703072E-07,-60.6781616210938
6.60008056738974E-07,-60.6079216003418
6.65008117774875E-07,-60.547119140625
6.70008178810776E-07,-60.4878921508789
6.75008239846678E-07,-60.4307861328125
6.80008300882579E-07,-60.3763618469238
6.8500836191848E-07,-60.3251686096191
6.90008422954382E-07,-60.2777633666992
6.95008483990283E-07,-60.2347030639648
7.00008545026184E-07,-60.196533203125
7.05008606062086E-07,-60.163818359375
7.10008667097987E-07,-60.1371078491211
7.15008728133888E-07,-60.1169586181641
7.2000878916979E-07,-60.1039199829102
7.25008850205691E-07,-60.0985488891602
7.30008911241592E-07,-60.1103286743164
7.35008972277494E-07,-60.1450424194336
7.40009033313395E-07,-60.1977043151855
7.45009094349296E-07,-60.2633285522461
7.50009155385198E-07,-60.3369255065918
7.55009216421099E-07,-60.4135131835938
7.60009277457E-07,-60.4881019592285
7.65009338492901E-07,-60.5557060241699
7.70009399528803E-07,-60.6113357543945
7.75009460564704E-07,-60.6500091552734
7.80009521600605E-07,-60.6667404174805
7.85009582636507E-07,-60.6565399169922
7.90009643672408E-07,-60.6144218444824
7.95009704708309E-07,-60.5343589782715
8.00009765744211E-07,-60.4133644104004
8.05009826780112E-07,-60.2575798034668
8.10009887816013E-07,-60.0736236572266
8.15009948851915E-07,-59.8681144714355
8.20010009887816E-07,-59.6476745605469
8.25010070923717E-07,-59.4189186096191
8.30010131959619E-07,-59.1884689331055
8.3501019299552E-07,-58.9629402160645
8.40010254031421E-07,-58.7489585876465
8.45010315067323E-07,-58.5531387329102
8.50010376103224E-07,-58.3820991516113
8.55010437139125E-07,-58.2424583435059
8.60010498175026E-07,-58.1371726989746
8.65010559210928E-07,-58.0257339477539
8.70010620246829E-07,-57.9016227722168
8.7501068128273E-07,-57.7730979919434
8.80010742318632E-07,-57.6484107971191
8.85010803354533E-07,-57.5358200073242
8.90010864390434E-07,-57.4435844421387
8.95010925426336E-07,-57.379955291748
9.00010986462237E-07,-57.3531913757324
9.05011047498138E-07,-57.3715476989746
9.1001110853404E-07,-57.4432830810547
9.15011169569941E-07,-57.5766487121582
9.20011230605842E-07,-57.7799072265625
9.25011291641744E-07,-58.0613059997559
9.30011352677645E-07,-58.474796295166
9.35011413713546E-07,-59.0475997924805
9.40011474749448E-07,-59.7478981018066
9.45011535785349E-07,-60.5438690185547
9.5001159682125E-07,-61.4036865234375
9.55011657857151E-07,-62.2955360412598
9.60011718893053E-07,-63.1875915527344
9.65011779928954E-07,-64.0480346679688
9.70011840964855E-07,-64.8450393676758
9.75011902000757E-07,-65.5467910766602
9.80011963036658E-07,-66.1214599609375
9.85012024072559E-07,-66.5372314453125
9.90012085108461E-07,-66.7622756958008
9.95012146144362E-07,-66.7710342407227
1.00001220718026E-06,-66.5799331665039
1.00501226821616E-06,-66.2179183959961
1.01001232925207E-06,-65.713508605957
1.01501239028797E-06,-65.0951995849609
1.02001245132387E-06,-64.3915023803711
1.02501251235977E-06,-63.630931854248
1.03001257339567E-06,-62.841983795166
1.03501263443157E-06,-62.0531768798828
1.04001269546747E-06,-61.2930107116699
1.04501275650338E-06,-60.5899925231934
1.05001281753928E-06,-59.9726333618164
1.05501287857518E-06,-59.4694404602051
1.06001293961108E-06,-59.1026649475098
1.06501300064698E-06,-58.8098754882813
1.07001306168288E-06,-58.5644721984863
1.07501312271878E-06,-58.3624687194824
1.08001318375468E-06,-58.1998748779297
1.08501324479059E-06,-58.0727005004883
1.09001330582649E-06,-57.9769592285156
1.09501336686239E-06,-57.9086608886719
1.10001342789829E-06,-57.8638191223145
1.10501348893419E-06,-57.8384475708008
1.11001354997009E-06,-57.8285522460938
1.11501361100599E-06,-57.8301429748535
1.1200136720419E-06,-57.839241027832
1.1250137330778E-06,-57.8518486022949
1.1300137941137E-06,-57.8909950256348
1.1350138551496E-06,-57.9766845703125
1.1400139161855E-06,-58.1004219055176
1.1450139772214E-06,-58.2536926269531
1.1500140382573E-06,-58.4279937744141
1.1550140992932E-06,-58.6148223876953
1.16001416032911E-06,-58.8056716918945
1.16501422136501E-06,-58.9920349121094
1.17001428240091E-06,-59.1654090881348
1.17501434343681E-06,-59.3172912597656
1.18001440447271E-06,-59.4391670227051
1.18501446550861E-06,-59.5225410461426
1.19001452654451E-06,-59.5589027404785
1.19501458758041E-06,-59.5426559448242
1.20001464861632E-06,-59.4815902709961
1.20501470965222E-06,-59.3824615478516
1.21001477068812E-06,-59.251579284668
1.21501483172402E-06,-59.0952453613281
1.22001489275992E-06,-58.9197616577148
1.22501495379582E-06,-58.7314300537109
1.23001501483172E-06,-58.5365562438965
1.23501507586763E-06,-58.3414459228516
1.24001513690353E-06,-58.152400970459
1.24501519793943E-06,-57.9757232666016
1.25001525897533E-06,-57.8177185058594
1.25501532001123E-06,-57.6846923828125
1.26001538104713E-06,-57.5759925842285
1.26501544208303E-06,-57.4123039245605
1.27001550311893E-06,-57.186882019043
1.27501556415484E-06,-56.9219703674316
1.28001562519074E-06,-56.6398124694824
1.28501568622664E-06,-56.3626518249512
1.29001574726254E-06,-56.1127243041992
1.29501580829844E-06,-55.9122772216797
1.30001586933434E-06,-55.7835502624512
1.30501593037024E-06,-55.7487831115723
1.31001599140614E-06,-55.8302230834961
1.31501605244205E-06,-56.050106048584
1.32001611347795E-06,-56.4306755065918
1.32501617451385E-06,-56.9941787719727
1.33001623554975E-06,-57.8400459289551
1.33501629658565E-06,-59.0106201171875
1.34001635762155E-06,-60.442497253418
1.34501641865745E-06,-62.0722770690918
1.35001647969336E-06,-63.836555480957
1.35501654072926E-06,-65.6719284057617
1.36001660176516E-06,-67.5149917602539
1.36501666280106E-06,-69.3023452758789
1.37001672383696E-06,-70.9705810546875
1.37501678487286E-06,-72.456298828125
1.38001684590876E-06,-73.6960983276367
1.38501690694466E-06,-74.626579284668
1.39001696798057E-06,-75.184326171875
1.39501702901647E-06,-75.323974609375
1.40001709005237E-06,-75.0936126708984
1.40501715108827E-06,-74.5464859008789
1.41001721212417E-06,-73.7334594726563
1.41501727316007E-06,-72.7054061889648
1.42001733419597E-06,-71.5131759643555
1.42501739523188E-06,-70.207649230957
1.43001745626778E-06,-68.8396759033203
1.43501751730368E-06,-67.4601211547852
1.44001757833958E-06,-66.1198501586914
1.44501763937548E-06,-64.8697357177734
1.45001770041138E-06,-63.760627746582
1.45501776144728E-06,-62.8433952331543
1.46001782248318E-06,-62.1585464477539
1.46501788351909E-06,-61.604118347168
1.47001794455499E-06,-61.1327781677246
1.47501800559089E-06,-60.734073638916
1.48001806662679E-06,-60.3975677490234
1.48501812766269E-06,-60.1128082275391
1.49001818869859E-06,-59.8693504333496
1.49501824973449E-06,-59.6567535400391
1.5000183107704E-06,-59.4645652770996
1.5050183718063E-06,-59.2823448181152
1.5100184328422E-06,-59.0996437072754
1.5150184938781E-06,-58.9060173034668
1.520018554914E-06,-58.6910209655762
1.5250186159499E-06,-58.4442100524902
1.5300186769858E-06,-58.1923866271973
1.5350187380217E-06,-57.9653358459473
1.54001879905761E-06,-57.757080078125
1.54501886009351E-06,-57.5616264343262
1.55001892112941E-06,-57.3729972839355
1.55501898216531E-06,-57.1852035522461
1.56001904320121E-06,-56.9922676086426
1.56501910423711E-06,-56.788200378418
1.57001916527301E-06,-56.567024230957
1.57501922630891E-06,-56.3227500915527
1.58001928734482E-06,-56.0493965148926
1.58501934838072E-06,-55.7409820556641
1.59001940941662E-06,-55.3915176391602
1.59501947045252E-06,-54.9953231811523
1.60001953148842E-06,-54.5530776977539
1.60501959252432E-06,-54.0709228515625
1.61001965356022E-06,-53.5551528930664
1.61501971459613E-06,-53.0120544433594
1.62001977563203E-06,-52.447925567627
1.62501983666793E-06,-51.8690528869629
1.63001989770383E-06,-51.2817344665527
1.63501995873973E-06,-50.6922607421875
1.64002001977563E-06,-50.1069221496582
1.64502008081153E-06,-49.5320167541504
1.65002014184743E-06,-48.9738311767578
1.65502020288334E-06,-48.4386596679688
1.66002026391924E-06,-47.9305114746094
1.66502032495514E-06,-47.4249572753906
1.67002038599104E-06,-46.9159889221191
1.67502044702694E-06,-46.4064826965332
1.68002050806284E-06,-45.8993148803711
1.68502056909874E-06,-45.3973617553711
1.69002063013465E-06,-44.9035034179688
1.69502069117055E-06,-44.4206123352051
1.70002075220645E-06,-43.9515724182129
1.70502081324235E-06,-43.4992523193359
1.71002087427825E-06,-43.0665321350098
1.71502093531415E-06,-42.6562919616699
1.72002099635005E-06,-42.2714042663574
1.72502105738595E-06,-41.9147529602051
1.73002111842186E-06,-41.5806159973145
1.73502117945776E-06,-41.2619247436523
1.74002124049366E-06,-40.9595146179199
1.74502130152956E-06,-40.6742172241211
1.75002136256546E-06,-40.4068717956543
1.75502142360136E-06,-40.1583137512207
1.76002148463726E-06,-39.9293746948242
1.76502154567316E-06,-39.7208938598633
1.77002160670907E-06,-39.5337066650391
1.77502166774497E-06,-39.3686447143555
1.78002172878087E-06,-39.2265434265137
1.78502178981677E-06,-39.1082420349121
1.79002185085267E-06,-39.0145721435547
1.79502191188857E-06,-38.9454536437988
1.80002197292447E-06,-38.8983726501465
1.80502203396038E-06,-38.8731727600098
1.81002209499628E-06,-38.8699073791504
1.81502215603218E-06,-38.8886299133301
1.82002221706808E-06,-38.9294013977051
1.82502227810398E-06,-38.9922752380371
1.83002233913988E-06,-39.0773086547852
1.83502240017578E-06,-39.1845550537109
1.84002246121168E-06,-39.3140716552734
1.84502252224759E-06,-39.4659118652344
1.85002258328349E-06,-39.64013671875
1.85502264431939E-06,-39.836799621582
1.86002270535529E-06,-40.0571022033691
1.86502276639119E-06,-40.3145980834961
1.87002282742709E-06,-40.6094131469727
1.87502288846299E-06,-40.936710357666
1.8800229494989E-06,-41.2916641235352
1.8850230105348E-06,-41.66943359375
1.8900230715707E-06,-42.0651931762695
1.8950231326066E-06,-42.4741058349609
1.9000231936425E-06,-42.8913345336914
1.9050232546784E-06,-43.3120536804199
1.9100233157143E-06,-43.7314262390137
1.9150233767502E-06,-44.1446189880371
1.92002343778611E-06,-44.5467987060547
1.92502349882201E-06,-44.9331359863281
1.93002355985791E-06,-45.3217430114746
1.93502362089381E-06,-45.7302627563477
1.94002368192971E-06,-46.153148651123
1.94502374296561E-06,-46.5848503112793
1.95002380400151E-06,-47.0198211669922
1.95502386503741E-06,-47.4525108337402
1.96002392607332E-06,-47.8773727416992
1.96502398710922E-06,-48.2888565063477
1.97002404814512E-06,-48.6814117431641
1.97502410918102E-06,-49.0494956970215
1.98002417021692E-06,-49.3875579833984
1.98502423125282E-06,-49.6900520324707
1.99002429228872E-06,-49.9514236450195
1.99502435332463E-06,-50.1681442260742
2.00002441436053E-06,-50.345630645752
2.00502447539643E-06,-50.4881896972656
2.01002453643233E-06,-50.5998115539551
2.01502459746823E-06,-50.6844787597656
2.02002465850413E-06,-50.7461738586426
2.02502471954003E-06,-50.7888793945313
2.03002478057593E-06,-50.8165817260742
2.03502484161184E-06,-50.8332633972168
2.04002490264774E-06,-50.8429069519043
2.04502496368364E-06,-50.8494987487793
2.05002502471954E-06,-50.8570213317871
2.05502508575544E-06,-50.869457244873
2.06002514679134E-06,-50.8896522521973
2.06502520782724E-06,-50.9057579040527
2.07002526886315E-06,-50.9140129089355
2.07502532989905E-06,-50.9149627685547
2.08002539093495E-06,-50.9091529846191
2.08502545197085E-06,-50.8971328735352
2.09002551300675E-06,-50.8794479370117
2.09502557404265E-06,-50.8566398620605
2.10002563507855E-06,-50.8292617797852
2.10502569611445E-06,-50.7978515625
2.11002575715036E-06,-50.7629623413086
2.11502581818626E-06,-50.7251358032227
2.12002587922216E-06,-50.6849174499512
2.12502594025806E-06,-50.6428565979004
2.13002600129396E-06,-50.5944786071777
2.13502606232986E-06,-50.5361442565918
2.14002612336576E-06,-50.4696655273438
2.14502618440166E-06,-50.3968505859375
2.15002624543757E-06,-50.319507598877
2.15502630647347E-06,-50.239444732666
2.16002636750937E-06,-50.1584701538086
2.16502642854527E-06,-50.0783920288086
2.17002648958117E-06,-50.0010147094727
2.17502655061707E-06,-49.9281539916992
2.18002661165297E-06,-49.8616142272949
2.18502667268888E-06,-49.8032035827637
2.19002673372478E-06,-49.7547264099121
2.19502679476068E-06,-49.7136268615723
2.20002685579658E-06,-49.6678924560547
2.20502691683248E-06,-49.6190795898438
2.21002697786838E-06,-49.5698471069336
2.21502703890428E-06,-49.5228538513184
2.22002709994018E-06,-49.4807662963867
2.22502716097609E-06,-49.4462432861328
2.23002722201199E-06,-49.4219436645508
2.23502728304789E-06,-49.4105339050293
2.24002734408379E-06,-49.4146690368652
2.24502740511969E-06,-49.4370155334473
2.25002746615559E-06,-49.4802284240723
2.25502752719149E-06,-49.5469779968262
2.2600275882274E-06,-49.6394729614258
2.2650276492633E-06,-49.7535591125488
2.2700277102992E-06,-49.8867683410645
2.2750277713351E-06,-50.038143157959
2.280027832371E-06,-50.2067222595215
2.2850278934069E-06,-50.3915481567383
2.2900279544428E-06,-50.5916633605957
2.2950280154787E-06,-50.8061027526855
2.30002807651461E-06,-51.0339050292969
2.30502813755051E-06,-51.2741165161133
2.31002819858641E-06,-51.5257759094238
2.31502825962231E-06,-51.7879180908203
2.32002832065821E-06,-52.0595893859863
2.32502838169411E-06,-52.3398246765137
2.33002844273001E-06,-52.6460380554199
2.33502850376592E-06,-52.9910697937012
2.34002856480182E-06,-53.3670883178711
2.34502862583772E-06,-53.7662811279297
2.35002868687362E-06,-54.1808204650879
2.35502874790952E-06,-54.6028900146484
2.36002880894542E-06,-55.0246658325195
2.36502886998132E-06,-55.4383239746094
2.37002893101722E-06,-55.8360443115234
2.37502899205313E-06,-56.2100067138672
2.38002905308903E-06,-56.5523872375488
2.38502911412493E-06,-56.8553657531738
2.39002917516083E-06,-57.1111221313477
2.39502923619673E-06,-57.3135375976563
2.40002929723263E-06,-57.467113494873
2.40502935826853E-06,-57.5788345336914
2.41002941930443E-06,-57.6555290222168
2.41502948034034E-06,-57.7040252685547
2.42002954137624E-06,-57.731143951416
2.42502960241214E-06,-57.7437210083008
2.43002966344804E-06,-57.7485809326172
2.43502972448394E-06,-57.7525482177734
2.44002978551984E-06,-57.762451171875
2.44502984655574E-06,-57.7851181030273
2.45002990759165E-06,-57.8273735046387
2.45502996862755E-06,-57.896053314209
2.46003002966345E-06,-57.9950294494629
2.46503009069935E-06,-58.0923271179199
2.47003015173525E-06,-58.1813468933105
