Trace
Swept SA
A.19.55,N9020B
508 AB2 B25 B40 B85 DP2 DP4 EP2 FS1 FS2 MPB RTL ,01
Segment,0
Number of Points,81920
Sweep Time,0.0004096
Start Frequency,2400000000
Stop Frequency,2400000000
Average Count,0
Average Type,LogPower(Video)
RBW,3000000
RBW Filter,Gaussian
RBW Filter BW,3dB
VBW,3000000
Sweep Type,Swept
X Axis Scale,Lin
PreAmp State,Off
PreAmp Band,Low
Trigger Source,Ext1
Trigger Level,1.2
Trigger Slope,Positive
Trigger Delay,1E-06
Phase Noise Optimization,Fast
Swept If Gain,Low
FFT If Gain,Autorange
RF Coupling,AC
FFT Width,411900
Ext Ref,10000000
Input,RF
RF Calibrator,Off
Attenuation,6
Ref Level Offset,0
External Gain,0
Trace Type,Clearwrite
Detector,Normal
Trace Math,Off
Trace Math Oper1,Trace5
Trace Math Oper2,Trace6
Trace Math Offset,0
Normalize,Off
Trace Name,Trace1
X Axis Units,s
Y Axis Units,dBm
DATA
0,-45.541374206543
5.00006103590132E-09,-45.6746864318848
1.00001220718026E-08,-45.755012512207
1.50001831077039E-08,-45.7979164123535
2.00002441436053E-08,-45.8189697265625
2.50003051795066E-08,-45.8337364196777
3.00003662154079E-08,-45.857780456543
3.50004272513092E-08,-45.9066772460938
4.00004882872105E-08,-45.9959869384766
4.50005493231118E-08,-46.1412773132324
5.00006103590132E-08,-46.3581199645996
5.50006713949145E-08,-46.6620750427246
6.00007324308158E-08,-47.070930480957
6.50007934667171E-08,-47.616870880127
7.00008545026184E-08,-48.2862358093262
7.50009155385197E-08,-49.0534591674805
8.00009765744211E-08,-49.8929634094238
8.50010376103224E-08,-50.7791862487793
9.00010986462237E-08,-51.6865539550781
9.5001159682125E-08,-52.5894966125488
1.00001220718026E-07,-53.4624443054199
1.05001281753928E-07,-54.2798271179199
1.10001342789829E-07,-55.0160789489746
1.1500140382573E-07,-55.645622253418
1.20001464861632E-07,-56.142894744873
1.25001525897533E-07,-56.4823226928711
1.30001586933434E-07,-56.6618385314941
1.35001647969336E-07,-56.7086067199707
1.40001709005237E-07,-56.6409149169922
1.45001770041138E-07,-56.4770469665527
1.50001831077039E-07,-56.235279083252
1.55001892112941E-07,-55.9339027404785
1.60001953148842E-07,-55.591194152832
1.65002014184743E-07,-55.2254409790039
1.70002075220645E-07,-54.854923248291
1.75002136256546E-07,-54.4979248046875
1.80002197292447E-07,-54.1727294921875
1.85002258328349E-07,-53.8976211547852
1.9000231936425E-07,-53.6908836364746
1.95002380400151E-07,-53.5467109680176
2.00002441436053E-07,-53.3991775512695
2.05002502471954E-07,-53.2479591369629
2.10002563507855E-07,-53.0985221862793
2.15002624543757E-07,-52.9563255310059
2.20002685579658E-07,-52.8268280029297
2.25002746615559E-07,-52.7154960632324
2.30002807651461E-07,-52.6277923583984
2.35002868687362E-07,-52.5691719055176
2.40002929723263E-07,-52.5451049804688
2.45002990759165E-07,-52.5610466003418
2.50003051795066E-07,-52.6224632263184
2.55003112830967E-07,-52.7348175048828
2.60003173866868E-07,-52.9049987792969
2.6500323490277E-07,-53.1520156860352
2.70003295938671E-07,-53.4711761474609
2.75003356974572E-07,-53.8507919311523
2.80003418010474E-07,-54.2791595458984
2.85003479046375E-07,-54.7445907592773
2.90003540082276E-07,-55.2353935241699
2.95003601118178E-07,-55.7398681640625
3.00003662154079E-07,-56.2463226318359
3.0500372318998E-07,-56.7430686950684
3.10003784225882E-07,-57.2184066772461
3.15003845261783E-07,-57.6606407165527
3.20003906297684E-07,-58.0580825805664
3.25003967333586E-07,-58.3990364074707
3.30004028369487E-07,-58.6972503662109
3.35004089405388E-07,-58.9750747680664
3.4000415044129E-07,-59.2337265014648
3.45004211477191E-07,-59.4744186401367
3.50004272513092E-07,-59.6983604431152
3.55004333548993E-07,-59.9067649841309
3.60004394584895E-07,-60.1008491516113
3.65004455620796E-07,-60.2818222045898
3.70004516656697E-07,-60.4508972167969
3.75004577692599E-07,-60.6092910766602
3.800046387285E-07,-60.7582092285156
3.85004699764401E-07,-60.8988723754883
3.90004760800303E-07,-61.0324935913086
3.95004821836204E-07,-61.1535377502441
4.00004882872105E-07,-61.243465423584
4.05004943908007E-07,-61.3063468933105
4.10005004943908E-07,-61.3480224609375
4.15005065979809E-07,-61.3743324279785
4.20005127015711E-07,-61.3911247253418
4.25005188051612E-07,-61.404239654541
4.30005249087513E-07,-61.4195175170898
4.35005310123415E-07,-61.442798614502
4.40005371159316E-07,-61.4799346923828
4.45005432195217E-07,-61.5367584228516
4.50005493231119E-07,-61.6191139221191
4.5500555426702E-07,-61.7328491210938
4.60005615302921E-07,-61.8861770629883
4.65005676338822E-07,-62.1093597412109
4.70005737374724E-07,-62.397518157959
4.75005798410625E-07,-62.7346267700195
4.80005859446526E-07,-63.104679107666
4.85005920482428E-07,-63.4916572570801
4.90005981518329E-07,-63.8795509338379
4.9500604255423E-07,-64.2523345947266
5.00006103590132E-07,-64.5940093994141
5.05006164626033E-07,-64.8885498046875
5.10006225661934E-07,-65.1199417114258
5.15006286697836E-07,-65.2721786499023
5.20006347733737E-07,-65.329231262207
5.25006408769638E-07,-65.2751007080078
5.3000646980554E-07,-65.0939331054688
5.35006530841441E-07,-64.7929000854492
5.40006591877342E-07,-64.3905334472656
5.45006652913243E-07,-63.9053726196289
5.50006713949145E-07,-63.3559455871582
5.55006774985046E-07,-62.7607879638672
5.60006836020948E-07,-62.138427734375
5.65006897056849E-07,-61.5074005126953
5.7000695809275E-07,-60.8862380981445
5.75007019128651E-07,-60.2934722900391
5.80007080164553E-07,-59.7476387023926
5.85007141200454E-07,-59.2672653198242
5.90007202236355E-07,-58.8708839416504
5.95007263272257E-07,-58.5509719848633
6.00007324308158E-07,-58.2361602783203
6.05007385344059E-07,-57.9274368286133
6.10007446379961E-07,-57.6320915222168
6.15007507415862E-07,-57.3574104309082
6.20007568451763E-07,-57.1106872558594
6.25007629487665E-07,-56.8992156982422
6.30007690523566E-07,-56.730281829834
6.35007751559467E-07,-56.6111755371094
6.40007812595369E-07,-56.5491905212402
6.4500787363127E-07,-56.5516166687012
6.50007934667171E-07,-56.6257438659668
6.55007995703072E-07,-56.778865814209
6.60008056738974E-07,-57.0240707397461
6.65008117774875E-07,-57.4325294494629
6.70008178810776E-07,-57.9985771179199
6.75008239846678E-07,-58.6904449462891
6.80008300882579E-07,-59.4763565063477
6.8500836191848E-07,-60.324535369873
6.90008422954382E-07,-61.2032127380371
6.95008483990283E-07,-62.0806159973145
7.00008545026184E-07,-62.9249687194824
7.05008606062086E-07,-63.7045021057129
7.10008667097987E-07,-64.3874359130859
7.15008728133888E-07,-64.942008972168
7.2000878916979E-07,-65.3364334106445
7.25008850205691E-07,-65.538948059082
7.30008911241592E-07,-65.5442123413086
7.35008972277494E-07,-65.3841247558594
7.40009033313395E-07,-65.0827407836914
7.45009094349296E-07,-64.6641311645508
7.50009155385198E-07,-64.1523513793945
7.55009216421099E-07,-63.5714721679688
7.60009277457E-07,-62.9455413818359
7.65009338492901E-07,-62.2986335754395
7.70009399528803E-07,-61.6548042297363
7.75009460564704E-07,-61.0381202697754
7.80009521600605E-07,-60.4726371765137
7.85009582636507E-07,-59.9824256896973
7.90009643672408E-07,-59.5915412902832
7.95009704708309E-07,-59.2999572753906
8.00009765744211E-07,-59.0418701171875
8.05009826780112E-07,-58.8108024597168
8.10009887816013E-07,-58.6058349609375
8.15009948851915E-07,-58.4260520935059
8.20010009887816E-07,-58.2705345153809
8.25010070923717E-07,-58.1383628845215
8.30010131959619E-07,-58.028621673584
8.3501019299552E-07,-57.9403915405273
8.40010254031421E-07,-57.8727569580078
8.45010315067323E-07,-57.8247909545898
8.50010376103224E-07,-57.7955856323242
8.55010437139125E-07,-57.7842216491699
8.60010498175026E-07,-57.7918701171875
8.65010559210928E-07,-57.8428153991699
8.70010620246829E-07,-57.9382057189941
8.7501068128273E-07,-58.0703086853027
8.80010742318632E-07,-58.2313919067383
8.85010803354533E-07,-58.4137229919434
8.90010864390434E-07,-58.6095733642578
8.95010925426336E-07,-58.8112030029297
9.00010986462237E-07,-59.0108833312988
9.05011047498138E-07,-59.2008857727051
9.1001110853404E-07,-59.3734741210938
9.15011169569941E-07,-59.5209159851074
9.20011230605842E-07,-59.6354751586914
9.25011291641744E-07,-59.7094268798828
9.30011352677645E-07,-59.7459945678711
9.35011413713546E-07,-59.7559928894043
9.40011474749448E-07,-59.7430763244629
9.45011535785349E-07,-59.7109069824219
9.5001159682125E-07,-59.6631317138672
9.55011657857151E-07,-59.6034126281738
9.60011718893053E-07,-59.535400390625
9.65011779928954E-07,-59.4627532958984
9.70011840964855E-07,-59.3891296386719
9.75011902000757E-07,-59.3181800842285
9.80011963036658E-07,-59.2535591125488
9.85012024072559E-07,-59.1989288330078
9.90012085108461E-07,-59.1579360961914
9.95012146144362E-07,-59.1125106811523
1.00001220718026E-06,-59.0028381347656
1.00501226821616E-06,-58.8423156738281
1.01001232925207E-06,-58.6500663757324
1.01501239028797E-06,-58.4452171325684
1.02001245132387E-06,-58.2468872070313
1.02501251235977E-06,-58.0741958618164
1.03001257339567E-06,-57.9462661743164
1.03501263443157E-06,-57.8822250366211
1.04001269546747E-06,-57.9011917114258
1.04501275650338E-06,-58.0222854614258
1.05001281753928E-06,-58.2646293640137
1.05501287857518E-06,-58.6473503112793
1.06001293961108E-06,-59.1979141235352
1.06501300064698E-06,-60.0220527648926
1.07001306168288E-06,-61.1038589477539
1.07501312271878E-06,-62.3885536193848
1.08001318375468E-06,-63.8213653564453
1.08501324479059E-06,-65.3475189208984
1.09001330582649E-06,-66.9122467041016
1.09501336686239E-06,-68.4607620239258
1.10001342789829E-06,-69.9383010864258
1.10501348893419E-06,-71.2900848388672
1.11001354997009E-06,-72.4613494873047
1.11501361100599E-06,-73.3973007202148
1.1200136720419E-06,-74.0431823730469
1.1250137330778E-06,-74.3442230224609
1.1300137941137E-06,-74.2810363769531
1.1350138551496E-06,-73.901741027832
1.1400139161855E-06,-73.2527618408203
1.1450139772214E-06,-72.3805313110352
1.1500140382573E-06,-71.3314819335938
1.1550140992932E-06,-70.1520462036133
1.16001416032911E-06,-68.8886489868164
1.16501422136501E-06,-67.5877304077148
1.17001428240091E-06,-66.2957153320313
1.17501434343681E-06,-65.0590438842773
1.18001440447271E-06,-63.9241371154785
1.18501446550861E-06,-62.9374313354492
1.19001452654451E-06,-62.1453590393066
1.19501458758041E-06,-61.5517578125
1.20001464861632E-06,-61.0404090881348
1.20501470965222E-06,-60.5956954956055
1.21001477068812E-06,-60.2117042541504
1.21501483172402E-06,-59.882495880127
1.22001489275992E-06,-59.6021537780762
1.22501495379582E-06,-59.3647422790527
1.23001501483172E-06,-59.1643409729004
1.23501507586763E-06,-58.9950218200684
1.24001513690353E-06,-58.8508529663086
1.24501519793943E-06,-58.7259140014648
1.25001525897533E-06,-58.6142730712891
1.25501532001123E-06,-58.5100059509277
1.26001538104713E-06,-58.4105186462402
1.26501544208303E-06,-58.3527145385742
1.27001550311893E-06,-58.3424415588379
1.27501556415484E-06,-58.3720779418945
1.28001562519074E-06,-58.4340171813965
1.28501568622664E-06,-58.520637512207
1.29001574726254E-06,-58.624324798584
1.29501580829844E-06,-58.7374649047852
1.30001586933434E-06,-58.8524398803711
1.30501593037024E-06,-58.9616432189941
1.31001599140614E-06,-59.0574493408203
1.31501605244205E-06,-59.1322479248047
1.32001611347795E-06,-59.1784210205078
1.32501617451385E-06,-59.1883583068848
1.33001623554975E-06,-59.166072845459
1.33501629658565E-06,-59.1227874755859
1.34001635762155E-06,-59.0616912841797
1.34501641865745E-06,-58.9859771728516
1.35001647969336E-06,-58.8988380432129
1.35501654072926E-06,-58.8034629821777
1.36001660176516E-06,-58.7030410766602
1.36501666280106E-06,-58.6007690429688
1.37001672383696E-06,-58.4998321533203
1.37501678487286E-06,-58.4034309387207
1.38001684590876E-06,-58.3147468566895
1.38501690694466E-06,-58.2369766235352
1.39001696798057E-06,-58.1733093261719
1.39501702901647E-06,-58.1061859130859
1.40001709005237E-06,-57.9784889221191
1.40501715108827E-06,-57.8033256530762
1.41001721212417E-06,-57.599292755127
1.41501727316007E-06,-57.3849792480469
1.42001733419597E-06,-57.1789703369141
1.42501739523188E-06,-56.9998550415039
1.43001745626778E-06,-56.8662261962891
1.43501751730368E-06,-56.7966690063477
1.44001757833958E-06,-56.8097763061523
1.44501763937548E-06,-56.9241371154785
1.45001770041138E-06,-57.1583366394043
1.45501776144728E-06,-57.5309677124023
1.46001782248318E-06,-58.0688438415527
1.46501788351909E-06,-58.8760986328125
1.47001794455499E-06,-59.9372711181641
1.47501800559089E-06,-61.1986503601074
1.48001806662679E-06,-62.6065139770508
1.48501812766269E-06,-64.1071395874023
1.49001818869859E-06,-65.6468048095703
1.49501824973449E-06,-67.1717910766602
1.5000183107704E-06,-68.6283798217773
1.5050183718063E-06,-69.9628524780273
1.5100184328422E-06,-71.1214904785156
1.5150184938781E-06,-72.0505676269531
1.520018554914E-06,-72.6963653564453
1.5250186159499E-06,-73.0051651000977
1.5300186769858E-06,-72.9590911865234
1.5350187380217E-06,-72.606071472168
1.54001879905761E-06,-71.9911041259766
1.54501886009351E-06,-71.1591873168945
1.55001892112941E-06,-70.1553039550781
1.55501898216531E-06,-69.0244598388672
1.56001904320121E-06,-67.811637878418
1.56501910423711E-06,-66.5618438720703
1.57001916527301E-06,-65.320068359375
1.57501922630891E-06,-64.1313095092773
1.58001928734482E-06,-63.0405464172363
1.58501934838072E-06,-62.0927886962891
1.59001940941662E-06,-61.3330268859863
1.59501947045252E-06,-60.7681999206543
1.60001953148842E-06,-60.294563293457
1.60501959252432E-06,-59.8944282531738
1.61001965356022E-06,-59.5586166381836
1.61501971459613E-06,-59.2779541015625
1.62001977563203E-06,-59.0432624816895
1.62501983666793E-06,-58.8453712463379
1.63001989770383E-06,-58.6751022338867
1.63501995873973E-06,-58.5232772827148
1.64002001977563E-06,-58.3807220458984
1.64502008081153E-06,-58.2382621765137
1.65002014184743E-06,-58.0867195129395
1.65502020288334E-06,-57.9169158935547
1.66002026391924E-06,-57.7251892089844
1.66502032495514E-06,-57.5727882385254
1.67002038599104E-06,-57.4688148498535
1.67502044702694E-06,-57.4000282287598
1.68002050806284E-06,-57.3531837463379
1.68502056909874E-06,-57.3150405883789
1.69002063013465E-06,-57.2723579406738
1.69502069117055E-06,-57.2118949890137
1.70002075220645E-06,-57.1204032897949
1.70502081324235E-06,-56.9846534729004
1.71002087427825E-06,-56.7913932800293
1.71502093531415E-06,-56.5273857116699
1.72002099635005E-06,-56.179386138916
1.72502105738595E-06,-55.7341575622559
1.73002111842186E-06,-55.1652069091797
1.73502117945776E-06,-54.4694366455078
1.74002124049366E-06,-53.6686782836914
1.74502130152956E-06,-52.7847595214844
1.75002136256546E-06,-51.8395156860352
1.75502142360136E-06,-50.8547821044922
1.76002148463726E-06,-49.8523864746094
1.76502154567316E-06,-48.8541641235352
1.77002160670907E-06,-47.8819465637207
1.77502166774497E-06,-46.9575691223145
1.78002172878087E-06,-46.1028594970703
1.78502178981677E-06,-45.339656829834
1.79002185085267E-06,-44.6897850036621
1.79502191188857E-06,-44.1614112854004
1.80002197292447E-06,-43.7173805236816
1.80502203396038E-06,-43.3453102111816
1.81002209499628E-06,-43.0356369018555
1.81502215603218E-06,-42.7788047790527
1.82002221706808E-06,-42.5652656555176
1.82502227810398E-06,-42.3854598999023
1.83002233913988E-06,-42.2298316955566
1.83502240017578E-06,-42.0888214111328
1.84002246121168E-06,-41.9528846740723
1.84502252224759E-06,-41.8124542236328
1.85002258328349E-06,-41.6579818725586
1.85502264431939E-06,-41.479907989502
1.86002270535529E-06,-41.2688484191895
1.86502276639119E-06,-41.0229911804199
1.87002282742709E-06,-40.7509613037109
1.87502288846299E-06,-40.4621200561523
1.8800229494989E-06,-40.1658172607422
1.8850230105348E-06,-39.8714218139648
1.8900230715707E-06,-39.5882873535156
1.8950231326066E-06,-39.3257789611816
1.9000231936425E-06,-39.0932464599609
1.9050232546784E-06,-38.9000549316406
1.9100233157143E-06,-38.7555656433105
1.9150233767502E-06,-38.669132232666
1.92002343778611E-06,-38.6501197814941
1.92502349882201E-06,-38.7078819274902
1.93002355985791E-06,-38.8599014282227
1.93502362089381E-06,-39.107536315918
1.94002368192971E-06,-39.4359550476074
1.94502374296561E-06,-39.8303298950195
1.95002380400151E-06,-40.2758369445801
1.95502386503741E-06,-40.7576446533203
1.96002392607332E-06,-41.2609252929688
1.96502398710922E-06,-41.7708587646484
1.97002404814512E-06,-42.2726058959961
1.97502410918102E-06,-42.751350402832
1.98002417021692E-06,-43.192253112793
1.98502423125282E-06,-43.5804977416992
1.99002429228872E-06,-43.9012489318848
1.99502435332463E-06,-44.1435470581055
2.00002441436053E-06,-44.3176689147949
2.00502447539643E-06,-44.4363479614258
2.01002453643233E-06,-44.5118522644043
2.01502459746823E-06,-44.5564575195313
2.02002465850413E-06,-44.5824241638184
2.02502471954003E-06,-44.6020278930664
2.03002478057593E-06,-44.6275367736816
2.03502484161184E-06,-44.6712226867676
2.04002490264774E-06,-44.7453498840332
2.04502496368364E-06,-44.8621940612793
2.05002502471954E-06,-45.0340232849121
2.05502508575544E-06,-45.2731018066406
2.06002514679134E-06,-45.5915336608887
2.06502520782724E-06,-45.9920501708984
2.07002526886315E-06,-46.4635963439941
2.07502532989905E-06,-46.9940032958984
2.08002539093495E-06,-47.571102142334
2.08502545197085E-06,-48.1827239990234
2.09002551300675E-06,-48.8167037963867
2.09502557404265E-06,-49.460865020752
2.10002563507855E-06,-50.1030502319336
2.10502569611445E-06,-50.7310829162598
2.11002575715036E-06,-51.3327980041504
2.11502581818626E-06,-51.8960266113281
2.12002587922216E-06,-52.4085998535156
2.12502594025806E-06,-52.8583488464355
2.13002600129396E-06,-53.2593612670898
2.13502606232986E-06,-53.6347389221191
2.14002612336576E-06,-53.9858551025391
2.14502618440166E-06,-54.3140830993652
2.15002624543757E-06,-54.6207885742188
2.15502630647347E-06,-54.9073486328125
2.16002636750937E-06,-55.1751327514648
2.16502642854527E-06,-55.4255065917969
2.17002648958117E-06,-55.6598472595215
2.17502655061707E-06,-55.879524230957
2.18002661165297E-06,-56.0859107971191
2.18502667268888E-06,-56.2803726196289
2.19002673372478E-06,-56.464282989502
2.19502679476068E-06,-56.6312484741211
2.20002685579658E-06,-56.7599067687988
2.20502691683248E-06,-56.8549690246582
2.21002697786838E-06,-56.9232025146484
2.21502703890428E-06,-56.9713592529297
2.22002709994018E-06,-57.0062026977539
2.22502716097609E-06,-57.0344886779785
2.23002722201199E-06,-57.0629806518555
2.23502728304789E-06,-57.0984382629395
2.24002734408379E-06,-57.1476173400879
2.24502740511969E-06,-57.2172813415527
2.25002746615559E-06,-57.3141860961914
2.25502752719149E-06,-57.4450950622559
2.2600275882274E-06,-57.6183433532715
2.2650276492633E-06,-57.8551979064941
2.2700277102992E-06,-58.1498184204102
2.2750277713351E-06,-58.4885330200195
2.280027832371E-06,-58.857666015625
2.2850278934069E-06,-59.2435417175293
2.2900279544428E-06,-59.6324920654297
2.2950280154787E-06,-60.0108375549316
2.30002807651461E-06,-60.3649063110352
2.30502813755051E-06,-60.681022644043
2.31002819858641E-06,-60.9455108642578
2.31502825962231E-06,-61.1446990966797
2.32002832065821E-06,-61.2649154663086
2.32502838169411E-06,-61.29248046875
2.33002844273001E-06,-61.2171745300293
2.33502850376592E-06,-61.0473594665527
2.34002856480182E-06,-60.7972526550293
2.34502862583772E-06,-60.4810676574707
2.35002868687362E-06,-60.1130142211914
2.35502874790952E-06,-59.7073097229004
2.36002880894542E-06,-59.2781677246094
2.36502886998132E-06,-58.8397979736328
2.37002893101722E-06,-58.406421661377
2.37502899205313E-06,-57.992244720459
2.38002905308903E-06,-57.6114845275879
2.38502911412493E-06,-57.2783546447754
2.39002917516083E-06,-57.0070686340332
2.39502923619673E-06,-56.7929420471191
2.40002929723263E-06,-56.5842437744141
2.40502935826853E-06,-56.3808670043945
2.41002941930443E-06,-56.1872329711914
2.41502948034034E-06,-56.0077781677246
2.42002954137624E-06,-55.8469314575195
2.42502960241214E-06,-55.7091217041016
2.43002966344804E-06,-55.5987815856934
2.43502972448394E-06,-55.5203399658203
2.44002978551984E-06,-55.4782295227051
2.44502984655574E-06,-55.4768753051758
2.45002990759165E-06,-55.5207138061523
2.45502996862755E-06,-55.6141700744629
2.46003002966345E-06,-55.7643737792969
2.46503009069935E-06,-56.0048141479492
