Trace
Swept SA
A.19.55,N9020B
508 AB2 B25 B40 B85 DP2 DP4 EP2 FS1 FS2 MPB RTL ,01
Segment,0
Number of Points,81920
Sweep Time,0.0004096
Start Frequency,2400000000
Stop Frequency,2400000000
Average Count,0
Average Type,LogPower(Video)
RBW,3000000
RBW Filter,Gaussian
RBW Filter BW,3dB
VBW,3000000
Sweep Type,Swept
X Axis Scale,Lin
PreAmp State,Off
PreAmp Band,Low
Trigger Source,Ext1
Trigger Level,1.2
Trigger Slope,Positive
Trigger Delay,1E-06
Phase Noise Optimization,Fast
Swept If Gain,Low
FFT If Gain,Autorange
RF Coupling,AC
FFT Width,411900
Ext Ref,10000000
Input,RF
RF Calibrator,Off
Attenuation,6
Ref Level Offset,0
External Gain,0
Trace Type,Clearwrite
Detector,Normal
Trace Math,Off
Trace Math Oper1,Trace5
Trace Math Oper2,Trace6
Trace Math Offset,0
Normalize,Off
Trace Name,Trace1
X Axis Units,s
Y Axis Units,dBm
DATA
0,-58.4749412536621
5.00006103590132E-09,-59.124942779541
1.00001220718026E-08,-59.7699165344238
1.50001831077039E-08,-60.4031181335449
2.00002441436053E-08,-61.0177955627441
2.50003051795066E-08,-61.6072006225586
3.00003662154079E-08,-62.1645851135254
3.50004272513092E-08,-62.6831932067871
4.00004882872105E-08,-63.1562843322754
4.50005493231118E-08,-63.5771064758301
5.00006103590132E-08,-63.938907623291
5.50006713949145E-08,-64.2349395751953
6.00007324308158E-08,-64.4557800292969
6.50007934667171E-08,-64.5673065185547
7.00008545026184E-08,-64.5751647949219
7.50009155385197E-08,-64.4975738525391
8.00009765744211E-08,-64.3527297973633
8.50010376103224E-08,-64.1588439941406
9.00010986462237E-08,-63.9341239929199
9.5001159682125E-08,-63.6967697143555
1.00001220718026E-07,-63.4649887084961
1.05001281753928E-07,-63.2569885253906
1.10001342789829E-07,-63.0909767150879
1.1500140382573E-07,-62.9851570129395
1.20001464861632E-07,-62.9577331542969
1.25001525897533E-07,-63.0269165039063
1.30001586933434E-07,-63.1997604370117
1.35001647969336E-07,-63.4606971740723
1.40001709005237E-07,-63.7939949035645
1.45001770041138E-07,-64.1839218139648
1.50001831077039E-07,-64.6147308349609
1.55001892112941E-07,-65.0706939697266
1.60001953148842E-07,-65.5360717773438
1.65002014184743E-07,-65.9951324462891
1.70002075220645E-07,-66.4321441650391
1.75002136256546E-07,-66.8313674926758
1.80002197292447E-07,-67.1770629882813
1.85002258328349E-07,-67.453498840332
1.9000231936425E-07,-67.6449432373047
1.95002380400151E-07,-67.7459487915039
2.00002441436053E-07,-67.7845153808594
2.05002502471954E-07,-67.7692184448242
2.10002563507855E-07,-67.7064743041992
2.15002624543757E-07,-67.6026992797852
2.20002685579658E-07,-67.4643096923828
2.25002746615559E-07,-67.297721862793
2.30002807651461E-07,-67.1093521118164
2.35002868687362E-07,-66.9056167602539
2.40002929723263E-07,-66.6929321289063
2.45002990759165E-07,-66.4777145385742
2.50003051795066E-07,-66.2663726806641
2.55003112830967E-07,-66.0653381347656
2.60003173866868E-07,-65.8765487670898
2.6500323490277E-07,-65.6500091552734
2.70003295938671E-07,-65.3792419433594
2.75003356974572E-07,-65.076057434082
2.80003418010474E-07,-64.7522430419922
2.85003479046375E-07,-64.4195938110352
2.90003540082276E-07,-64.0898971557617
2.95003601118178E-07,-63.7749633789063
3.00003662154079E-07,-63.4865760803223
3.0500372318998E-07,-63.2365341186523
3.10003784225882E-07,-63.0366249084473
3.15003845261783E-07,-62.8986511230469
3.20003906297684E-07,-62.8344039916992
3.25003967333586E-07,-62.8556747436523
3.30004028369487E-07,-62.9794578552246
3.35004089405388E-07,-63.2040557861328
3.4000415044129E-07,-63.5132331848145
3.45004211477191E-07,-63.8907585144043
3.50004272513092E-07,-64.3203964233398
3.55004333548993E-07,-64.7859115600586
3.60004394584895E-07,-65.2710647583008
3.65004455620796E-07,-65.7596206665039
3.70004516656697E-07,-66.2353515625
3.75004577692599E-07,-66.682014465332
3.800046387285E-07,-67.0833892822266
3.85004699764401E-07,-67.423225402832
3.90004760800303E-07,-67.6852874755859
3.95004821836204E-07,-67.8686676025391
4.00004882872105E-07,-68.0151519775391
4.05004943908007E-07,-68.1298599243164
4.10005004943908E-07,-68.2144241333008
4.15005065979809E-07,-68.2704696655273
4.20005127015711E-07,-68.2996139526367
4.25005188051612E-07,-68.3034820556641
4.30005249087513E-07,-68.2836990356445
4.35005310123415E-07,-68.2418975830078
4.40005371159316E-07,-68.1796798706055
4.45005432195217E-07,-68.0986938476563
4.50005493231119E-07,-68.0005493164063
4.5500555426702E-07,-67.8868789672852
4.60005615302921E-07,-67.7554397583008
4.65005676338822E-07,-67.5614624023438
4.70005737374724E-07,-67.3028945922852
4.75005798410625E-07,-66.9940490722656
4.80005859446526E-07,-66.6492538452148
4.85005920482428E-07,-66.282829284668
4.90005981518329E-07,-65.9090881347656
4.9500604255423E-07,-65.5423583984375
5.00006103590132E-07,-65.1969528198242
5.05006164626033E-07,-64.8871917724609
5.10006225661934E-07,-64.6273956298828
5.15006286697836E-07,-64.431884765625
5.20006347733737E-07,-64.3149871826172
5.25006408769638E-07,-64.2910079956055
5.3000646980554E-07,-64.3757705688477
5.35006530841441E-07,-64.5639801025391
5.40006591877342E-07,-64.8382568359375
5.45006652913243E-07,-65.1812286376953
5.50006713949145E-07,-65.5755233764648
5.55006774985046E-07,-66.0037612915039
5.60006836020948E-07,-66.4485855102539
5.65006897056849E-07,-66.8926086425781
5.7000695809275E-07,-67.3184661865234
5.75007019128651E-07,-67.7087860107422
5.80007080164553E-07,-68.0461959838867
5.85007141200454E-07,-68.3133163452148
5.90007202236355E-07,-68.4927825927734
5.95007263272257E-07,-68.5796051025391
6.00007324308158E-07,-68.6075134277344
6.05007385344059E-07,-68.5851669311523
6.10007446379961E-07,-68.5185470581055
6.15007507415862E-07,-68.4136581420898
6.20007568451763E-07,-68.2764892578125
6.25007629487665E-07,-68.1130447387695
6.30007690523566E-07,-67.9293060302734
6.35007751559467E-07,-67.7312698364258
6.40007812595369E-07,-67.5249328613281
6.4500787363127E-07,-67.3162841796875
6.50007934667171E-07,-67.111328125
6.55007995703072E-07,-66.9160461425781
6.60008056738974E-07,-66.7331848144531
6.65008117774875E-07,-66.5267105102539
6.70008178810776E-07,-66.2907333374023
6.75008239846678E-07,-66.0324935913086
6.80008300882579E-07,-65.7592391967773
6.8500836191848E-07,-65.4782180786133
6.90008422954382E-07,-65.1966552734375
6.95008483990283E-07,-64.9218063354492
7.00008545026184E-07,-64.6609115600586
7.05008606062086E-07,-64.4212036132813
7.10008667097987E-07,-64.2099380493164
7.15008728133888E-07,-64.0343475341797
7.2000878916979E-07,-63.9016799926758
7.25008850205691E-07,-63.8191757202148
7.30008911241592E-07,-63.7931365966797
7.35008972277494E-07,-63.8197364807129
7.40009033313395E-07,-63.8910102844238
7.45009094349296E-07,-63.9989967346191
7.50009155385198E-07,-64.1357421875
7.55009216421099E-07,-64.2932815551758
7.60009277457E-07,-64.4636611938477
7.65009338492901E-07,-64.6389083862305
7.70009399528803E-07,-64.8110733032227
7.75009460564704E-07,-64.9721908569336
7.80009521600605E-07,-65.1143035888672
7.85009582636507E-07,-65.2294464111328
7.90009643672408E-07,-65.3096618652344
7.95009704708309E-07,-65.3553695678711
8.00009765744211E-07,-65.3894271850586
8.05009826780112E-07,-65.4136734008789
8.10009887816013E-07,-65.4279708862305
8.15009948851915E-07,-65.4322128295898
8.20010009887816E-07,-65.4262542724609
8.25010070923717E-07,-65.4099960327148
8.30010131959619E-07,-65.3832931518555
8.3501019299552E-07,-65.3460311889648
8.40010254031421E-07,-65.2980880737305
8.45010315067323E-07,-65.2393341064453
8.50010376103224E-07,-65.1696472167969
8.55010437139125E-07,-65.0889129638672
8.60010498175026E-07,-64.9947128295898
8.65010559210928E-07,-64.8601837158203
8.70010620246829E-07,-64.6850814819336
8.7501068128273E-07,-64.47900390625
8.80010742318632E-07,-64.2515563964844
8.85010803354533E-07,-64.012321472168
8.90010864390434E-07,-63.7709159851074
8.95010925426336E-07,-63.536922454834
9.00010986462237E-07,-63.3199501037598
9.05011047498138E-07,-63.1295928955078
9.1001110853404E-07,-62.9754486083984
9.15011169569941E-07,-62.867115020752
9.20011230605842E-07,-62.8141899108887
9.25011291641744E-07,-62.8262786865234
9.30011352677645E-07,-62.9104042053223
9.35011413713546E-07,-63.060604095459
9.40011474749448E-07,-63.2669677734375
9.45011535785349E-07,-63.5195922851563
9.5001159682125E-07,-63.8085632324219
9.55011657857151E-07,-64.1239852905273
9.60011718893053E-07,-64.4559326171875
9.65011779928954E-07,-64.7945175170898
9.70011840964855E-07,-65.1298217773438
9.75011902000757E-07,-65.4519500732422
9.80011963036658E-07,-65.7509765625
9.85012024072559E-07,-66.0170059204102
9.90012085108461E-07,-66.2401351928711
9.95012146144362E-07,-66.4235458374023
1.00001220718026E-06,-66.6031188964844
1.00501226821616E-06,-66.7789840698242
1.01001232925207E-06,-66.9481201171875
1.01501239028797E-06,-67.1075210571289
1.02001245132387E-06,-67.2541656494141
1.02501251235977E-06,-67.3850402832031
1.03001257339567E-06,-67.4971389770508
1.03501263443157E-06,-67.5874328613281
1.04001269546747E-06,-67.6529159545898
1.04501275650338E-06,-67.6905746459961
1.05001281753928E-06,-67.6973876953125
1.05501287857518E-06,-67.6703491210938
1.06001293961108E-06,-67.6045455932617
1.06501300064698E-06,-67.4765167236328
1.07001306168288E-06,-67.2886734008789
1.07501312271878E-06,-67.0520553588867
1.08001318375468E-06,-66.777702331543
1.08501324479059E-06,-66.4766387939453
1.09001330582649E-06,-66.1598968505859
1.09501336686239E-06,-65.8385162353516
1.10001342789829E-06,-65.5235290527344
1.10501348893419E-06,-65.2259674072266
1.11001354997009E-06,-64.9568634033203
1.11501361100599E-06,-64.7272491455078
1.1200136720419E-06,-64.5481643676758
1.1250137330778E-06,-64.4306411743164
1.1300137941137E-06,-64.3737487792969
1.1350138551496E-06,-64.3645401000977
1.1400139161855E-06,-64.3960113525391
1.1450139772214E-06,-64.4611434936523
1.1500140382573E-06,-64.5529556274414
1.1550140992932E-06,-64.6644287109375
1.16001416032911E-06,-64.7885589599609
1.16501422136501E-06,-64.9183502197266
1.17001428240091E-06,-65.0467910766602
1.17501434343681E-06,-65.166877746582
1.18001440447271E-06,-65.271614074707
1.18501446550861E-06,-65.3539810180664
1.19001452654451E-06,-65.4069976806641
1.19501458758041E-06,-65.4307556152344
1.20001464861632E-06,-65.4447174072266
1.20501470965222E-06,-65.4506759643555
1.21001477068812E-06,-65.4487915039063
1.21501483172402E-06,-65.439208984375
1.22001489275992E-06,-65.4220962524414
1.22501495379582E-06,-65.397590637207
1.23001501483172E-06,-65.365852355957
1.23501507586763E-06,-65.3270416259766
1.24001513690353E-06,-65.2812957763672
1.24501519793943E-06,-65.2287826538086
1.25001525897533E-06,-65.1696548461914
1.25501532001123E-06,-65.1040573120117
1.26001538104713E-06,-65.0294418334961
1.26501544208303E-06,-64.9139862060547
1.27001550311893E-06,-64.7571334838867
1.27501556415484E-06,-64.5699768066406
1.28001562519074E-06,-64.3636093139648
1.28501568622664E-06,-64.1491165161133
1.29001574726254E-06,-63.9375915527344
1.29501580829844E-06,-63.740119934082
1.30001586933434E-06,-63.567798614502
1.30501593037024E-06,-63.431713104248
1.31001599140614E-06,-63.3429565429688
1.31501605244205E-06,-63.3126182556152
1.32001611347795E-06,-63.3517837524414
1.32501617451385E-06,-63.471549987793
1.33001623554975E-06,-63.6996803283691
1.33501629658565E-06,-64.0425415039063
1.34001635762155E-06,-64.479133605957
1.34501641865745E-06,-64.9884567260742
1.35001647969336E-06,-65.5495147705078
1.35501654072926E-06,-66.1413040161133
1.36001660176516E-06,-66.7428207397461
1.36501666280106E-06,-67.3330688476563
1.37001672383696E-06,-67.8910522460938
1.37501678487286E-06,-68.3957672119141
1.38001684590876E-06,-68.8262176513672
1.38501690694466E-06,-69.1613922119141
1.39001696798057E-06,-69.3803024291992
1.39501702901647E-06,-69.4731597900391
1.40001709005237E-06,-69.4703750610352
1.40501715108827E-06,-69.3854064941406
1.41001721212417E-06,-69.2295074462891
1.41501727316007E-06,-69.013916015625
1.42001733419597E-06,-68.7498931884766
1.42501739523188E-06,-68.4486770629883
1.43001745626778E-06,-68.1215362548828
1.43501751730368E-06,-67.7797012329102
1.44001757833958E-06,-67.434440612793
1.44501763937548E-06,-67.0969924926758
1.45001770041138E-06,-66.7786102294922
1.45501776144728E-06,-66.4905471801758
1.46001782248318E-06,-66.2404327392578
1.46501788351909E-06,-65.9901123046875
1.47001794455499E-06,-65.7289276123047
1.47501800559089E-06,-65.4600524902344
1.48001806662679E-06,-65.1866989135742
1.48501812766269E-06,-64.9120559692383
1.49001818869859E-06,-64.6393203735352
1.49501824973449E-06,-64.3716812133789
1.5000183107704E-06,-64.1123428344727
1.5050183718063E-06,-63.8644905090332
1.5100184328422E-06,-63.6313285827637
1.5150184938781E-06,-63.4160423278809
1.520018554914E-06,-63.2218360900879
1.5250186159499E-06,-63.0519027709961
1.5300186769858E-06,-62.9207649230957
1.5350187380217E-06,-62.8346672058105
1.54001879905761E-06,-62.7843894958496
1.54501886009351E-06,-62.7607002258301
1.55001892112941E-06,-62.7543792724609
1.55501898216531E-06,-62.7561988830566
1.56001904320121E-06,-62.7569313049316
1.56501910423711E-06,-62.7473564147949
1.57001916527301E-06,-62.7182464599609
1.57501922630891E-06,-62.6603775024414
1.58001928734482E-06,-62.5645217895508
1.58501934838072E-06,-62.4214553833008
1.59001940941662E-06,-62.2219543457031
1.59501947045252E-06,-61.9620552062988
1.60001953148842E-06,-61.6560363769531
1.60501959252432E-06,-61.3095436096191
1.61001965356022E-06,-60.9271659851074
1.61501971459613E-06,-60.513484954834
1.62001977563203E-06,-60.0730895996094
1.62501983666793E-06,-59.6105613708496
1.63001989770383E-06,-59.1304893493652
1.63501995873973E-06,-58.6374588012695
1.64002001977563E-06,-58.1360549926758
1.64502008081153E-06,-57.6308631896973
1.65002014184743E-06,-57.1264686584473
1.65502020288334E-06,-56.6274604797363
1.66002026391924E-06,-56.1360664367676
1.66502032495514E-06,-55.626407623291
1.67002038599104E-06,-55.0940017700195
1.67502044702694E-06,-54.5437965393066
1.68002050806284E-06,-53.9807357788086
1.68502056909874E-06,-53.4097709655762
1.69002063013465E-06,-52.8358497619629
1.69502069117055E-06,-52.2639236450195
1.70002075220645E-06,-51.6989364624023
1.70502081324235E-06,-51.1458396911621
1.71002087427825E-06,-50.6095809936523
1.71502093531415E-06,-50.0951080322266
1.72002099635005E-06,-49.6073684692383
1.72502105738595E-06,-49.1513137817383
1.73002111842186E-06,-48.7170028686523
1.73502117945776E-06,-48.2921905517578
1.74002124049366E-06,-47.8783683776855
1.74502130152956E-06,-47.4770317077637
1.75002136256546E-06,-47.089672088623
1.75502142360136E-06,-46.7177772521973
1.76002148463726E-06,-46.3628425598145
1.76502154567316E-06,-46.0263557434082
1.77002160670907E-06,-45.7098159790039
1.77502166774497E-06,-45.4147109985352
1.78002172878087E-06,-45.1425361633301
1.78502178981677E-06,-44.894775390625
1.79002185085267E-06,-44.6729278564453
1.79502191188857E-06,-44.4762954711914
1.80002197292447E-06,-44.2988662719727
1.80502203396038E-06,-44.1408042907715
1.81002209499628E-06,-44.0027885437012
1.81502215603218E-06,-43.8855133056641
1.82002221706808E-06,-43.7896537780762
1.82502227810398E-06,-43.7159080505371
1.83002233913988E-06,-43.6649551391602
1.83502240017578E-06,-43.6374816894531
1.84002246121168E-06,-43.6341781616211
1.84502252224759E-06,-43.6557273864746
1.85002258328349E-06,-43.7028198242188
1.85502264431939E-06,-43.7761383056641
1.86002270535529E-06,-43.8761138916016
1.86502276639119E-06,-43.9999923706055
1.87002282742709E-06,-44.1471176147461
1.87502288846299E-06,-44.3178367614746
1.8800229494989E-06,-44.5124931335449
1.8850230105348E-06,-44.7314300537109
1.8900230715707E-06,-44.9749946594238
1.8950231326066E-06,-45.2435302734375
1.9000231936425E-06,-45.5373840332031
1.9050232546784E-06,-45.8568992614746
1.9100233157143E-06,-46.2024230957031
1.9150233767502E-06,-46.5742988586426
1.92002343778611E-06,-46.9728736877441
1.92502349882201E-06,-47.3984909057617
1.93002355985791E-06,-47.8657760620117
1.93502362089381E-06,-48.3842315673828
1.94002368192971E-06,-48.9465065002441
1.94502374296561E-06,-49.5452461242676
1.95002380400151E-06,-50.1731109619141
1.95502386503741E-06,-50.8227462768555
1.96002392607332E-06,-51.4868011474609
1.96502398710922E-06,-52.1579322814941
1.97002404814512E-06,-52.828784942627
1.97502410918102E-06,-53.492015838623
1.98002417021692E-06,-54.1402702331543
1.98502423125282E-06,-54.7662010192871
1.99002429228872E-06,-55.3624572753906
1.99502435332463E-06,-55.934944152832
2.00002441436053E-06,-56.5200119018555
2.00502447539643E-06,-57.1149444580078
2.01002453643233E-06,-57.713737487793
2.01502459746823E-06,-58.3103904724121
2.02002465850413E-06,-58.8989028930664
2.02502471954003E-06,-59.4732666015625
2.03002478057593E-06,-60.0274848937988
2.03502484161184E-06,-60.5555534362793
2.04002490264774E-06,-61.0514717102051
2.04502496368364E-06,-61.5092353820801
2.05002502471954E-06,-61.9228439331055
2.05502508575544E-06,-62.2862930297852
2.06002514679134E-06,-62.5908699035645
2.06502520782724E-06,-62.8023643493652
2.07002526886315E-06,-62.9257507324219
2.07502532989905E-06,-62.978588104248
2.08002539093495E-06,-62.9784317016602
2.08502545197085E-06,-62.9428367614746
2.09002551300675E-06,-62.8893661499023
2.09502557404265E-06,-62.8355712890625
2.10002563507855E-06,-62.7990074157715
2.10502569611445E-06,-62.7972373962402
2.11002575715036E-06,-62.8478126525879
2.11502581818626E-06,-62.9682922363281
2.12002587922216E-06,-63.1762313842773
2.12502594025806E-06,-63.4891891479492
2.13002600129396E-06,-63.9430847167969
2.13502606232986E-06,-64.5425796508789
2.14002612336576E-06,-65.2583312988281
2.14502618440166E-06,-66.0610046386719
2.15002624543757E-06,-66.921257019043
2.15502630647347E-06,-67.8097610473633
2.16002636750937E-06,-68.6971664428711
2.16502642854527E-06,-69.5541458129883
2.17002648958117E-06,-70.3513565063477
2.17502655061707E-06,-71.059455871582
2.18002661165297E-06,-71.6491088867188
2.18502667268888E-06,-72.0909881591797
2.19002673372478E-06,-72.3557434082031
2.19502679476068E-06,-72.4231033325195
2.20002685579658E-06,-72.3173446655273
2.20502691683248E-06,-72.0625152587891
2.21002697786838E-06,-71.6813735961914
2.21502703890428E-06,-71.1966934204102
2.22002709994018E-06,-70.631217956543
2.22502716097609E-06,-70.0077056884766
2.23002722201199E-06,-69.3489303588867
2.23502728304789E-06,-68.6776428222656
2.24002734408379E-06,-68.0166015625
2.24502740511969E-06,-67.3885650634766
2.25002746615559E-06,-66.816291809082
2.25502752719149E-06,-66.3225402832031
2.2600275882274E-06,-65.9228286743164
2.2650276492633E-06,-65.5408020019531
2.2700277102992E-06,-65.1548690795898
2.2750277713351E-06,-64.7712173461914
2.280027832371E-06,-64.3960113525391
2.2850278934069E-06,-64.0354156494141
2.2900279544428E-06,-63.6956176757813
2.2950280154787E-06,-63.3827819824219
2.30002807651461E-06,-63.1030807495117
2.30502813755051E-06,-62.8626899719238
2.31002819858641E-06,-62.6677780151367
2.31502825962231E-06,-62.5245208740234
2.32002832065821E-06,-62.4390869140625
2.32502838169411E-06,-62.417652130127
2.33002844273001E-06,-62.4759864807129
2.33502850376592E-06,-62.6178436279297
2.34002856480182E-06,-62.8313865661621
2.34502862583772E-06,-63.1047706604004
2.35002868687362E-06,-63.426155090332
2.35502874790952E-06,-63.7837028503418
2.36002880894542E-06,-64.1655654907227
2.36502886998132E-06,-64.5598983764648
2.37002893101722E-06,-64.9548645019531
2.37502899205313E-06,-65.3386306762695
2.38002905308903E-06,-65.6993408203125
2.38502911412493E-06,-66.0251617431641
2.39002917516083E-06,-66.3042449951172
2.39502923619673E-06,-66.5415725708008
2.40002929723263E-06,-66.7832107543945
2.40502935826853E-06,-67.0283889770508
2.41002941930443E-06,-67.2722778320313
2.41502948034034E-06,-67.5100402832031
2.42002954137624E-06,-67.7368316650391
2.42502960241214E-06,-67.9478225708008
2.43002966344804E-06,-68.1381607055664
2.43502972448394E-06,-68.3030242919922
2.44002978551984E-06,-68.4375686645508
2.44502984655574E-06,-68.5369567871094
2.45002990759165E-06,-68.5963516235352
2.45502996862755E-06,-68.6109085083008
2.46003002966345E-06,-68.5729827880859
2.46503009069935E-06,-68.4475021362305
2.47003015173525E-06,-68.2383804321289
