Trace
Swept SA
A.19.55,N9020B
508 AB2 B25 B40 B85 DP2 DP4 EP2 FS1 FS2 MPB RTL ,01
Segment,0
Number of Points,81920
Sweep Time,0.0004096
Start Frequency,2400000000
Stop Frequency,2400000000
Average Count,0
Average Type,LogPower(Video)
RBW,3000000
RBW Filter,Gaussian
RBW Filter BW,3dB
VBW,3000000
Sweep Type,Swept
X Axis Scale,Lin
PreAmp State,Off
PreAmp Band,Low
Trigger Source,Ext1
Trigger Level,1.2
Trigger Slope,Positive
Trigger Delay,1E-06
Phase Noise Optimization,Fast
Swept If Gain,Low
FFT If Gain,Autorange
RF Coupling,AC
FFT Width,411900
Ext Ref,10000000
Input,RF
RF Calibrator,Off
Attenuation,6
Ref Level Offset,0
External Gain,0
Trace Type,Clearwrite
Detector,Normal
Trace Math,Off
Trace Math Oper1,Trace5
Trace Math Oper2,Trace6
Trace Math Offset,0
Normalize,Off
Trace Name,Trace1
X Axis Units,s
Y Axis Units,dBm
DATA
0,-72.9134368896484
5.00006103590132E-09,-73.2934951782227
1.00001220718026E-08,-73.6982727050781
1.50001831077039E-08,-74.1239013671875
2.00002441436053E-08,-74.5665054321289
2.50003051795066E-08,-75.0222244262695
3.00003662154079E-08,-75.487174987793
3.50004272513092E-08,-75.9574890136719
4.00004882872105E-08,-76.4293060302734
4.50005493231118E-08,-76.8987426757813
5.00006103590132E-08,-77.361946105957
5.50006713949145E-08,-77.8150253295898
6.00007324308158E-08,-78.2574234008789
6.50007934667171E-08,-78.726432800293
7.00008545026184E-08,-79.2260513305664
7.50009155385197E-08,-79.7466430664063
8.00009765744211E-08,-80.2785720825195
8.50010376103224E-08,-80.8122100830078
9.00010986462237E-08,-81.3379211425781
9.5001159682125E-08,-81.846076965332
1.00001220718026E-07,-82.3270416259766
1.05001281753928E-07,-82.7711791992188
1.10001342789829E-07,-83.1688613891602
1.1500140382573E-07,-83.5104522705078
1.20001464861632E-07,-83.7863235473633
1.25001525897533E-07,-83.9868392944336
1.30001586933434E-07,-84.1095581054688
1.35001647969336E-07,-84.1635971069336
1.40001709005237E-07,-84.1566467285156
1.45001770041138E-07,-84.0964050292969
1.50001831077039E-07,-83.9905624389648
1.55001892112941E-07,-83.8468246459961
1.60001953148842E-07,-83.6728820800781
1.65002014184743E-07,-83.476432800293
1.70002075220645E-07,-83.2651748657227
1.75002136256546E-07,-83.0467987060547
1.80002197292447E-07,-82.8290023803711
1.85002258328349E-07,-82.6194839477539
1.9000231936425E-07,-82.4259414672852
1.95002380400151E-07,-82.2431564331055
2.00002441436053E-07,-82.035758972168
2.05002502471954E-07,-81.8058090209961
2.10002563507855E-07,-81.5585556030273
2.15002624543757E-07,-81.2992477416992
2.20002685579658E-07,-81.0331420898438
2.25002746615559E-07,-80.7654724121094
2.30002807651461E-07,-80.5015029907227
2.35002868687362E-07,-80.2464752197266
2.40002929723263E-07,-80.0056381225586
2.45002990759165E-07,-79.7842407226563
2.50003051795066E-07,-79.587532043457
2.55003112830967E-07,-79.420768737793
2.60003173866868E-07,-79.2876892089844
2.6500323490277E-07,-79.1727981567383
2.70003295938671E-07,-79.0711441040039
2.75003356974572E-07,-78.9833984375
2.80003418010474E-07,-78.9102630615234
2.85003479046375E-07,-78.8524017333984
2.90003540082276E-07,-78.8105087280273
2.95003601118178E-07,-78.7852630615234
3.00003662154079E-07,-78.77734375
3.0500372318998E-07,-78.7874374389648
3.10003784225882E-07,-78.8162307739258
3.15003845261783E-07,-78.8644027709961
3.20003906297684E-07,-78.9326324462891
3.25003967333586E-07,-79.0216064453125
3.30004028369487E-07,-79.1418151855469
3.35004089405388E-07,-79.2995758056641
3.4000415044129E-07,-79.4893264770508
3.45004211477191E-07,-79.7055053710938
3.50004272513092E-07,-79.9425506591797
3.55004333548993E-07,-80.1949005126953
3.60004394584895E-07,-80.4569854736328
3.65004455620796E-07,-80.7232437133789
3.70004516656697E-07,-80.9881134033203
3.75004577692599E-07,-81.2460327148438
3.800046387285E-07,-81.4914398193359
3.85004699764401E-07,-81.7187728881836
3.90004760800303E-07,-81.9224548339844
3.95004821836204E-07,-82.1063919067383
4.00004882872105E-07,-82.2965087890625
4.05004943908007E-07,-82.4912109375
4.10005004943908E-07,-82.6865692138672
4.15005065979809E-07,-82.8786468505859
4.20005127015711E-07,-83.0635147094727
4.25005188051612E-07,-83.2372512817383
4.30005249087513E-07,-83.3959197998047
4.35005310123415E-07,-83.5355911254883
4.40005371159316E-07,-83.6523361206055
4.45005432195217E-07,-83.7422256469727
4.50005493231119E-07,-83.8013229370117
4.5500555426702E-07,-83.8257141113281
4.60005615302921E-07,-83.8111877441406
4.65005676338822E-07,-83.7530975341797
4.70005737374724E-07,-83.6549377441406
4.75005798410625E-07,-83.5219421386719
4.80005859446526E-07,-83.3593292236328
4.85005920482428E-07,-83.1723327636719
4.90005981518329E-07,-82.966194152832
4.9500604255423E-07,-82.7461318969727
5.00006103590132E-07,-82.5173721313477
5.05006164626033E-07,-82.2851638793945
5.10006225661934E-07,-82.0547180175781
5.15006286697836E-07,-81.8312759399414
5.20006347733737E-07,-81.6200714111328
5.25006408769638E-07,-81.4263229370117
5.3000646980554E-07,-81.2377700805664
5.35006530841441E-07,-81.0403060913086
5.40006591877342E-07,-80.8363418579102
5.45006652913243E-07,-80.6283187866211
5.50006713949145E-07,-80.4186630249023
5.55006774985046E-07,-80.2098007202148
5.60006836020948E-07,-80.0041580200195
5.65006897056849E-07,-79.8041763305664
5.7000695809275E-07,-79.6122817993164
5.75007019128651E-07,-79.4309005737305
5.80007080164553E-07,-79.2624588012695
5.85007141200454E-07,-79.1093902587891
5.90007202236355E-07,-78.9741287231445
5.95007263272257E-07,-78.8573913574219
6.00007324308158E-07,-78.7545394897461
6.05007385344059E-07,-78.6643447875977
6.10007446379961E-07,-78.5859375
6.15007507415862E-07,-78.5184478759766
6.20007568451763E-07,-78.4610137939453
6.25007629487665E-07,-78.4127578735352
6.30007690523566E-07,-78.3728179931641
6.35007751559467E-07,-78.34033203125
6.40007812595369E-07,-78.3144149780273
6.4500787363127E-07,-78.2942199707031
6.50007934667171E-07,-78.2788619995117
6.55007995703072E-07,-78.2674865722656
6.60008056738974E-07,-78.2598190307617
6.65008117774875E-07,-78.2625732421875
6.70008178810776E-07,-78.2766189575195
6.75008239846678E-07,-78.3003845214844
6.80008300882579E-07,-78.3322830200195
6.8500836191848E-07,-78.3707504272461
6.90008422954382E-07,-78.4142074584961
6.95008483990283E-07,-78.461067199707
7.00008545026184E-07,-78.5097503662109
7.05008606062086E-07,-78.5586929321289
7.10008667097987E-07,-78.6063079833984
7.15008728133888E-07,-78.6510238647461
7.2000878916979E-07,-78.6912536621094
7.25008850205691E-07,-78.7254257202148
7.30008911241592E-07,-78.7543334960938
7.35008972277494E-07,-78.7802581787109
7.40009033313395E-07,-78.8038940429688
7.45009094349296E-07,-78.8259201049805
7.50009155385198E-07,-78.8470153808594
7.55009216421099E-07,-78.8678665161133
7.60009277457E-07,-78.88916015625
7.65009338492901E-07,-78.9115676879883
7.70009399528803E-07,-78.9357833862305
7.75009460564704E-07,-78.9624786376953
7.80009521600605E-07,-78.9923477172852
7.85009582636507E-07,-79.0260696411133
7.90009643672408E-07,-79.064323425293
7.95009704708309E-07,-79.105827331543
8.00009765744211E-07,-79.1451721191406
8.05009826780112E-07,-79.1832122802734
8.10009887816013E-07,-79.2212753295898
8.15009948851915E-07,-79.2606964111328
8.20010009887816E-07,-79.3028335571289
8.25010070923717E-07,-79.3490219116211
8.30010131959619E-07,-79.4005966186523
8.3501019299552E-07,-79.4589080810547
8.40010254031421E-07,-79.5252914428711
8.45010315067323E-07,-79.6010818481445
8.50010376103224E-07,-79.6876373291016
8.55010437139125E-07,-79.7862854003906
8.60010498175026E-07,-79.8970260620117
8.65010559210928E-07,-80.0045394897461
8.70010620246829E-07,-80.107421875
8.7501068128273E-07,-80.2098388671875
8.80010742318632E-07,-80.3159866333008
8.85010803354533E-07,-80.4300308227539
8.90010864390434E-07,-80.5561752319336
8.95010925426336E-07,-80.6985855102539
9.00010986462237E-07,-80.861442565918
9.05011047498138E-07,-81.048942565918
9.1001110853404E-07,-81.2652587890625
9.15011169569941E-07,-81.5145721435547
9.20011230605842E-07,-81.8010635375977
9.25011291641744E-07,-82.1289215087891
9.30011352677645E-07,-82.5280380249023
9.35011413713546E-07,-83.0139389038086
9.40011474749448E-07,-83.5692672729492
9.45011535785349E-07,-84.176643371582
9.5001159682125E-07,-84.8186950683594
9.55011657857151E-07,-85.4780578613281
9.60011718893053E-07,-86.1373519897461
9.65011779928954E-07,-86.7792129516602
9.70011840964855E-07,-87.3862762451172
9.75011902000757E-07,-87.941162109375
9.80011963036658E-07,-88.4264984130859
9.85012024072559E-07,-88.8249206542969
9.90012085108461E-07,-89.1190567016602
9.95012146144362E-07,-89.3010406494141
1.00001220718026E-06,-89.3966369628906
1.00501226821616E-06,-89.4167938232422
1.01001232925207E-06,-89.3705902099609
1.01501239028797E-06,-89.26708984375
1.02001245132387E-06,-89.1153564453125
1.02501251235977E-06,-88.9244613647461
1.03001257339567E-06,-88.7034759521484
1.03501263443157E-06,-88.4614639282227
1.04001269546747E-06,-88.2074966430664
1.04501275650338E-06,-87.9506301879883
1.05001281753928E-06,-87.699951171875
1.05501287857518E-06,-87.4645156860352
1.06001293961108E-06,-87.2499694824219
1.06501300064698E-06,-87.0194625854492
1.07001306168288E-06,-86.7643280029297
1.07501312271878E-06,-86.4892807006836
1.08001318375468E-06,-86.1990432739258
1.08501324479059E-06,-85.8983383178711
1.09001330582649E-06,-85.5918884277344
1.09501336686239E-06,-85.2844161987305
1.10001342789829E-06,-84.9806442260742
1.10501348893419E-06,-84.6852951049805
1.11001354997009E-06,-84.4030914306641
1.11501361100599E-06,-84.1387557983398
1.1200136720419E-06,-83.8970108032227
1.1250137330778E-06,-83.6825714111328
1.1300137941137E-06,-83.4924697875977
1.1350138551496E-06,-83.3194046020508
1.1400139161855E-06,-83.1616439819336
1.1450139772214E-06,-83.0174407958984
1.1500140382573E-06,-82.8850555419922
1.1550140992932E-06,-82.7627487182617
1.16001416032911E-06,-82.6487884521484
1.16501422136501E-06,-82.5414199829102
1.17001428240091E-06,-82.4389114379883
1.17501434343681E-06,-82.3395156860352
1.18001440447271E-06,-82.2415084838867
1.18501446550861E-06,-82.1431274414063
1.19001452654451E-06,-82.0426483154297
1.19501458758041E-06,-81.9404373168945
1.20001464861632E-06,-81.8422546386719
1.20501470965222E-06,-81.7482757568359
1.21001477068812E-06,-81.6581802368164
1.21501483172402E-06,-81.5716552734375
1.22001489275992E-06,-81.4883651733398
1.22501495379582E-06,-81.4079895019531
1.23001501483172E-06,-81.3302154541016
1.23501507586763E-06,-81.2547073364258
1.24001513690353E-06,-81.1811447143555
1.24501519793943E-06,-81.1092147827148
1.25001525897533E-06,-81.0385818481445
1.25501532001123E-06,-80.9689331054688
1.26001538104713E-06,-80.89892578125
1.26501544208303E-06,-80.8163986206055
1.27001550311893E-06,-80.7215042114258
1.27501556415484E-06,-80.6188125610352
1.28001562519074E-06,-80.5129089355469
1.28501568622664E-06,-80.4083709716797
1.29001574726254E-06,-80.3097839355469
1.29501580829844E-06,-80.2217254638672
1.30001586933434E-06,-80.1487808227539
1.30501593037024E-06,-80.0955276489258
1.31001599140614E-06,-80.0665435791016
1.31501605244205E-06,-80.0664215087891
1.32001611347795E-06,-80.099723815918
1.32501617451385E-06,-80.1710510253906
1.33001623554975E-06,-80.2931823730469
1.33501629658565E-06,-80.4696502685547
1.34001635762155E-06,-80.6911392211914
1.34501641865745E-06,-80.9483184814453
1.35001647969336E-06,-81.2318801879883
1.35501654072926E-06,-81.5325012207031
1.36001660176516E-06,-81.8408660888672
1.36501666280106E-06,-82.1476516723633
1.37001672383696E-06,-82.4435348510742
1.37501678487286E-06,-82.7192077636719
1.38001684590876E-06,-82.9653396606445
1.38501690694466E-06,-83.1726150512695
1.39001696798057E-06,-83.3317108154297
1.39501702901647E-06,-83.4438095092773
1.40001709005237E-06,-83.5375747680664
1.40501715108827E-06,-83.6145935058594
1.41001721212417E-06,-83.6739959716797
1.41501727316007E-06,-83.7148971557617
1.42001733419597E-06,-83.7364273071289
1.42501739523188E-06,-83.7376937866211
1.43001745626778E-06,-83.7178344726563
1.43501751730368E-06,-83.6759567260742
1.44001757833958E-06,-83.611198425293
1.44501763937548E-06,-83.5226669311523
1.45001770041138E-06,-83.4094848632813
1.45501776144728E-06,-83.2707901000977
1.46001782248318E-06,-83.1034317016602
1.46501788351909E-06,-82.8805236816406
1.47001794455499E-06,-82.6025009155273
1.47501800559089E-06,-82.279670715332
1.48001806662679E-06,-81.9223098754883
1.48501812766269E-06,-81.5407257080078
1.49001818869859E-06,-81.1452026367188
1.49501824973449E-06,-80.7460403442383
1.5000183107704E-06,-80.3535385131836
1.5050183718063E-06,-79.9779739379883
1.5100184328422E-06,-79.6296615600586
1.5150184938781E-06,-79.3188781738281
1.520018554914E-06,-79.0559310913086
1.5250186159499E-06,-78.8511047363281
1.5300186769858E-06,-78.6978378295898
1.5350187380217E-06,-78.580207824707
1.54001879905761E-06,-78.4944534301758
1.54501886009351E-06,-78.4367904663086
1.55001892112941E-06,-78.4034729003906
1.55501898216531E-06,-78.3907318115234
1.56001904320121E-06,-78.3948059082031
1.56501910423711E-06,-78.4119186401367
1.57001916527301E-06,-78.4383239746094
1.57501922630891E-06,-78.4702377319336
1.58001928734482E-06,-78.50390625
1.58501934838072E-06,-78.5355682373047
1.59001940941662E-06,-78.5614547729492
1.59501947045252E-06,-78.587158203125
1.60001953148842E-06,-78.6383514404297
1.60501959252432E-06,-78.7116165161133
1.61001965356022E-06,-78.801139831543
1.61501971459613E-06,-78.9011154174805
1.62001977563203E-06,-79.0057373046875
1.62501983666793E-06,-79.1091995239258
1.63001989770383E-06,-79.205696105957
1.63501995873973E-06,-79.2894134521484
1.64002001977563E-06,-79.3545532226563
1.64502008081153E-06,-79.3953018188477
1.65002014184743E-06,-79.4058532714844
1.65502020288334E-06,-79.3804016113281
1.66002026391924E-06,-79.3139266967773
1.66502032495514E-06,-79.2132949829102
1.67002038599104E-06,-79.083854675293
1.67502044702694E-06,-78.9284744262695
1.68002050806284E-06,-78.7500381469727
1.68502056909874E-06,-78.5514068603516
1.69002063013465E-06,-78.3354568481445
1.69502069117055E-06,-78.1050567626953
1.70002075220645E-06,-77.8630905151367
1.70502081324235E-06,-77.612419128418
1.71002087427825E-06,-77.3559112548828
1.71502093531415E-06,-77.0964508056641
1.72002099635005E-06,-76.8369064331055
1.72502105738595E-06,-76.5801467895508
1.73002111842186E-06,-76.3133087158203
1.73502117945776E-06,-76.0244979858398
1.74002124049366E-06,-75.7180252075195
1.74502130152956E-06,-75.3982009887695
1.75002136256546E-06,-75.0693588256836
1.75502142360136E-06,-74.7358093261719
1.76002148463726E-06,-74.4018630981445
1.76502154567316E-06,-74.0718536376953
1.77002160670907E-06,-73.7500839233398
1.77502166774497E-06,-73.4408798217773
1.78002172878087E-06,-73.148551940918
1.78502178981677E-06,-72.8774337768555
1.79002185085267E-06,-72.6318206787109
1.79502191188857E-06,-72.4100570678711
1.80002197292447E-06,-72.1957015991211
1.80502203396038E-06,-71.9889373779297
1.81002209499628E-06,-71.7913818359375
1.81502215603218E-06,-71.6046524047852
1.82002221706808E-06,-71.4303665161133
1.82502227810398E-06,-71.2701416015625
1.83002233913988E-06,-71.1255950927734
1.83502240017578E-06,-70.9983444213867
1.84002246121168E-06,-70.8900146484375
1.84502252224759E-06,-70.8022232055664
1.85002258328349E-06,-70.7365875244141
1.85502264431939E-06,-70.6947174072266
1.86002270535529E-06,-70.6784515380859
1.86502276639119E-06,-70.6908950805664
1.87002282742709E-06,-70.7306213378906
1.87502288846299E-06,-70.795051574707
1.8800229494989E-06,-70.8816299438477
1.8850230105348E-06,-70.9877624511719
1.8900230715707E-06,-71.1108856201172
1.8950231326066E-06,-71.2484283447266
1.9000231936425E-06,-71.3978118896484
1.9050232546784E-06,-71.5564575195313
1.9100233157143E-06,-71.7218017578125
1.9150233767502E-06,-71.8912658691406
1.92002343778611E-06,-72.0622787475586
1.92502349882201E-06,-72.2322616577148
1.93002355985791E-06,-72.411865234375
1.93502362089381E-06,-72.6111526489258
1.94002368192971E-06,-72.8266906738281
1.94502374296561E-06,-73.0550308227539
1.95002380400151E-06,-73.2927398681641
1.95502386503741E-06,-73.536376953125
1.96002392607332E-06,-73.7824935913086
1.96502398710922E-06,-74.0276641845703
1.97002404814512E-06,-74.2684478759766
1.97502410918102E-06,-74.5013885498047
1.98002417021692E-06,-74.7230682373047
1.98502423125282E-06,-74.9300308227539
1.99002429228872E-06,-75.1188430786133
1.99502435332463E-06,-75.288818359375
2.00002441436053E-06,-75.4474563598633
2.00502447539643E-06,-75.5962371826172
2.01002453643233E-06,-75.7360229492188
2.01502459746823E-06,-75.8676910400391
2.02002465850413E-06,-75.9920959472656
2.02502471954003E-06,-76.110107421875
2.03002478057593E-06,-76.2226028442383
2.03502484161184E-06,-76.330451965332
2.04002490264774E-06,-76.4345092773438
2.04502496368364E-06,-76.53564453125
2.05002502471954E-06,-76.6347351074219
2.05502508575544E-06,-76.7326431274414
2.06002514679134E-06,-76.8302230834961
2.06502520782724E-06,-76.927619934082
2.07002526886315E-06,-77.0240478515625
2.07502532989905E-06,-77.1186752319336
2.08002539093495E-06,-77.2106399536133
2.08502545197085E-06,-77.2991104125977
2.09002551300675E-06,-77.3832397460938
2.09502557404265E-06,-77.4621734619141
2.10002563507855E-06,-77.5350799560547
2.10502569611445E-06,-77.6011123657227
2.11002575715036E-06,-77.6594161987305
2.11502581818626E-06,-77.7091598510742
2.12002587922216E-06,-77.7494888305664
2.12502594025806E-06,-77.7795639038086
2.13002600129396E-06,-77.7983016967773
2.13502606232986E-06,-77.8059158325195
2.14002612336576E-06,-77.8034896850586
2.14502618440166E-06,-77.7921447753906
2.15002624543757E-06,-77.7729568481445
2.15502630647347E-06,-77.7470397949219
2.16002636750937E-06,-77.7154769897461
2.16502642854527E-06,-77.6793746948242
2.17002648958117E-06,-77.6398315429688
2.17502655061707E-06,-77.5979461669922
2.18002661165297E-06,-77.554801940918
2.18502667268888E-06,-77.5115127563477
2.19002673372478E-06,-77.4691696166992
2.19502679476068E-06,-77.4256820678711
2.20002685579658E-06,-77.3722610473633
2.20502691683248E-06,-77.3102951049805
2.21002697786838E-06,-77.2419586181641
2.21502703890428E-06,-77.1694564819336
2.22002709994018E-06,-77.094970703125
2.22502716097609E-06,-77.0206985473633
2.23002722201199E-06,-76.9488220214844
2.23502728304789E-06,-76.8815383911133
2.24002734408379E-06,-76.8210296630859
2.24502740511969E-06,-76.7695007324219
2.25002746615559E-06,-76.7291259765625
2.25502752719149E-06,-76.7021102905273
2.2600275882274E-06,-76.6899490356445
2.2650276492633E-06,-76.685546875
2.2700277102992E-06,-76.6868209838867
2.2750277713351E-06,-76.6942825317383
2.280027832371E-06,-76.7084426879883
2.2850278934069E-06,-76.7298126220703
2.2900279544428E-06,-76.758903503418
2.2950280154787E-06,-76.7962265014648
2.30002807651461E-06,-76.8423004150391
2.30502813755051E-06,-76.8976287841797
2.31002819858641E-06,-76.9627304077148
2.31502825962231E-06,-77.0381088256836
2.32002832065821E-06,-77.1242752075195
2.32502838169411E-06,-77.2217483520508
2.33002844273001E-06,-77.3331909179688
2.33502850376592E-06,-77.4598388671875
2.34002856480182E-06,-77.6000442504883
2.34502862583772E-06,-77.7521667480469
2.35002868687362E-06,-77.9145584106445
2.35502874790952E-06,-78.085578918457
2.36002880894542E-06,-78.2635879516602
2.36502886998132E-06,-78.4469375610352
2.37002893101722E-06,-78.6339797973633
2.37502899205313E-06,-78.8230743408203
2.38002905308903E-06,-79.0125885009766
2.38502911412493E-06,-79.2008590698242
2.39002917516083E-06,-79.3862609863281
2.39502923619673E-06,-79.5716171264648
2.40002929723263E-06,-79.7692337036133
2.40502935826853E-06,-79.977294921875
2.41002941930443E-06,-80.1928482055664
2.41502948034034E-06,-80.4129409790039
2.42002954137624E-06,-80.6346130371094
2.42502960241214E-06,-80.8549041748047
2.43002966344804E-06,-81.0708694458008
2.43502972448394E-06,-81.279541015625
2.44002978551984E-06,-81.4779739379883
2.44502984655574E-06,-81.663200378418
2.45002990759165E-06,-81.8322677612305
2.45502996862755E-06,-81.9822311401367
2.46003002966345E-06,-82.1105499267578
2.46503009069935E-06,-82.2211151123047
2.47003015173525E-06,-82.316650390625
