Trace
Swept SA
A.19.55,N9020B
508 AB2 B25 B40 B85 DP2 DP4 EP2 FS1 FS2 MPB RTL ,01
Segment,0
Number of Points,81920
Sweep Time,0.000452266667
Start Frequency,2400000000
Stop Frequency,2400000000
Average Count,0
Average Type,LogPower(Video)
RBW,3000000
RBW Filter,Gaussian
RBW Filter BW,3dB
VBW,3000000
Sweep Type,Swept
X Axis Scale,Lin
PreAmp State,Off
PreAmp Band,Low
Trigger Source,Ext1
Trigger Level,1.2
Trigger Slope,Positive
Trigger Delay,1E-06
Phase Noise Optimization,Fast
Swept If Gain,Low
FFT If Gain,Autorange
RF Coupling,AC
FFT Width,411900
Ext Ref,10000000
Input,RF
RF Calibrator,Off
Attenuation,6
Ref Level Offset,0
External Gain,0
Trace Type,Clearwrite
Detector,Normal
Trace Math,Off
Trace Math Oper1,Trace5
Trace Math Oper2,Trace6
Trace Math Offset,0
Normalize,Off
Trace Name,Trace1
X Axis Units,s
Y Axis Units,dBm
DATA
0,-52.4730453491211
5.5209007312101E-09,-52.1927680969238
1.10418014624202E-08,-51.9085426330566
1.65627021936303E-08,-51.6239929199219
2.20836029248404E-08,-51.3427429199219
2.76045036560505E-08,-51.0684204101563
3.31254043872606E-08,-50.8046455383301
3.86463051184707E-08,-50.555046081543
4.41672058496808E-08,-50.3232498168945
4.96881065808909E-08,-50.1128768920898
5.5209007312101E-08,-49.9275588989258
6.07299080433111E-08,-49.7643890380859
6.62508087745212E-08,-49.613941192627
7.17717095057313E-08,-49.4766883850098
7.72926102369414E-08,-49.3532829284668
8.28135109681515E-08,-49.2443962097168
8.83344116993616E-08,-49.1506843566895
9.38553124305717E-08,-49.072811126709
9.93762131617818E-08,-49.0114402770996
1.04897113892992E-07,-48.9672355651855
1.10418014624202E-07,-48.9408569335938
1.15938915355412E-07,-48.9329681396484
1.21459816086622E-07,-48.9442291259766
1.26980716817832E-07,-48.9763450622559
1.32501617549042E-07,-49.0310859680176
1.38022518280252E-07,-49.1068916320801
1.43543419011463E-07,-49.2020874023438
1.49064319742673E-07,-49.3150062561035
1.54585220473883E-07,-49.4439659118652
1.60106121205093E-07,-49.5872993469238
1.65627021936303E-07,-49.743335723877
1.71147922667513E-07,-49.9103965759277
1.76668823398723E-07,-50.0868110656738
1.82189724129933E-07,-50.2709083557129
1.87710624861143E-07,-50.4610137939453
1.93231525592353E-07,-50.6592483520508
1.98752426323564E-07,-50.8747406005859
2.04273327054774E-07,-51.1059799194336
2.09794227785984E-07,-51.3507423400879
2.15315128517194E-07,-51.6067962646484
2.20836029248404E-07,-51.8719139099121
2.26356929979614E-07,-52.1438674926758
2.31877830710824E-07,-52.4204330444336
2.37398731442034E-07,-52.6993827819824
2.42919632173244E-07,-52.9784851074219
2.48440532904454E-07,-53.2555160522461
2.53961433635664E-07,-53.5282440185547
2.59482334366875E-07,-53.8020858764648
2.65003235098085E-07,-54.1013221740723
2.70524135829295E-07,-54.4210319519043
2.76045036560505E-07,-54.7533569335938
2.81565937291715E-07,-55.090446472168
2.87086838022925E-07,-55.4244384765625
2.92607738754135E-07,-55.7474746704102
2.98128639485345E-07,-56.051700592041
3.03649540216555E-07,-56.3292579650879
3.09170440947765E-07,-56.5722885131836
3.14691341678976E-07,-56.7729339599609
3.20212242410186E-07,-56.92333984375
3.25733143141396E-07,-57.015625
3.31254043872606E-07,-57.0483932495117
3.36774944603816E-07,-57.029712677002
3.42295845335026E-07,-56.9682235717773
3.47816746066236E-07,-56.8725776672363
3.53337646797446E-07,-56.7514114379883
3.58858547528656E-07,-56.6133728027344
3.64379448259866E-07,-56.4671096801758
3.69900348991077E-07,-56.3212661743164
3.75421249722287E-07,-56.1844825744629
3.80942150453497E-07,-56.0654106140137
3.86463051184707E-07,-55.9726905822754
3.91983951915917E-07,-55.9070930480957
3.97504852647127E-07,-55.8243408203125
4.03025753378337E-07,-55.7234954833984
4.08546654109547E-07,-55.6135139465332
4.14067554840757E-07,-55.5033416748047
4.19588455571967E-07,-55.4019355773926
4.25109356303178E-07,-55.3182487487793
4.30630257034388E-07,-55.2612342834473
4.36151157765598E-07,-55.2398452758789
4.41672058496808E-07,-55.2630310058594
4.47192959228018E-07,-55.3397483825684
4.52713859959228E-07,-55.4789505004883
4.58234760690438E-07,-55.6953430175781
4.63755661421648E-07,-56.0399589538574
4.69276562152858E-07,-56.5000343322754
4.74797462884068E-07,-57.0471725463867
4.80318363615278E-07,-57.6529769897461
4.85839264346489E-07,-58.2890472412109
4.91360165077699E-07,-58.9269905090332
4.96881065808909E-07,-59.538402557373
5.02401966540119E-07,-60.0948905944824
5.07922867271329E-07,-60.5680541992188
5.13443768002539E-07,-60.9294967651367
5.18964668733749E-07,-61.150821685791
5.24485569464959E-07,-61.2046051025391
5.30006470196169E-07,-61.0916595458984
5.3552737092738E-07,-60.837345123291
5.4104827165859E-07,-60.4667625427246
5.465691723898E-07,-60.0050010681152
5.5209007312101E-07,-59.4771575927734
5.5761097385222E-07,-58.9083251953125
5.6313187458343E-07,-58.323600769043
5.6865277531464E-07,-57.7480773925781
5.7417367604585E-07,-57.2068519592285
5.7969457677706E-07,-56.7250137329102
5.8521547750827E-07,-56.3276596069336
5.90736378239481E-07,-56.0369453430176
5.96257278970691E-07,-55.8041610717773
6.01778179701901E-07,-55.6026306152344
6.07299080433111E-07,-55.4310073852539
6.12819981164321E-07,-55.2879447937012
6.18340881895531E-07,-55.1720924377441
6.23861782626741E-07,-55.0821075439453
6.29382683357951E-07,-55.0166397094727
6.34903584089161E-07,-54.9743423461914
6.40424484820371E-07,-54.9538650512695
6.45945385551581E-07,-54.9538688659668
6.51466286282792E-07,-54.9729957580566
6.56987187014002E-07,-55.0107421875
6.62508087745212E-07,-55.1001853942871
6.68028988476422E-07,-55.2494354248047
6.73549889207632E-07,-55.4452819824219
6.79070789938842E-07,-55.6745185852051
6.84591690670052E-07,-55.9239273071289
6.90112591401262E-07,-56.1802978515625
6.95633492132472E-07,-56.4304237365723
7.01154392863682E-07,-56.6610870361328
7.06675293594893E-07,-56.8590812683105
7.12196194326103E-07,-57.0111923217773
7.17717095057313E-07,-57.1042060852051
7.23237995788523E-07,-57.1250152587891
7.28758896519733E-07,-57.0773239135742
7.34279797250943E-07,-56.9751205444336
7.39800697982153E-07,-56.8263931274414
7.45321598713363E-07,-56.6391372680664
7.50842499444573E-07,-56.4213409423828
7.56363400175783E-07,-56.1809959411621
7.61884300906994E-07,-55.9260940551758
7.67405201638204E-07,-55.664623260498
7.72926102369414E-07,-55.4045829772949
7.78447003100624E-07,-55.1539535522461
7.83967903831834E-07,-54.9207382202148
7.89488804563044E-07,-54.7129020690918
7.95009705294254E-07,-54.4933052062988
8.00530606025464E-07,-54.2322273254395
8.06051506756674E-07,-53.9438209533691
8.11572407487884E-07,-53.6422424316406
8.17093308219094E-07,-53.3416519165039
8.22614208950305E-07,-53.0561981201172
8.28135109681515E-07,-52.8000450134277
8.33656010412725E-07,-52.5873374938965
8.39176911143935E-07,-52.4322395324707
8.44697811875145E-07,-52.3489036560059
8.50218712606355E-07,-52.351490020752
8.55739613337565E-07,-52.4541473388672
8.61260514068775E-07,-52.6940460205078
8.66781414799985E-07,-53.085865020752
8.72302315531195E-07,-53.5992126464844
8.77823216262406E-07,-54.2035980224609
8.83344116993616E-07,-54.8685302734375
8.88865017724826E-07,-55.5635108947754
8.94385918456036E-07,-56.258056640625
8.99906819187246E-07,-56.9216690063477
9.05427719918456E-07,-57.5238571166992
9.10948620649666E-07,-58.0341262817383
9.16469521380876E-07,-58.4219856262207
9.21990422112086E-07,-58.6569404602051
9.27511322843296E-07,-58.7348213195801
9.33032223574507E-07,-58.6954193115234
9.38553124305717E-07,-58.5557098388672
9.44074025036927E-07,-58.3322067260742
9.49594925768137E-07,-58.0414276123047
9.55115826499347E-07,-57.6998748779297
9.60636727230557E-07,-57.3240661621094
9.66157627961767E-07,-56.9305038452148
9.71678528692977E-07,-56.5357093811035
9.77199429424187E-07,-56.1561851501465
9.82720330155397E-07,-55.8084487915039
9.88241230886608E-07,-55.5090065002441
9.93762131617818E-07,-55.2450714111328
9.99283032349028E-07,-54.9655113220215
1.00480393308024E-06,-54.674373626709
1.01032483381145E-06,-54.3776359558105
1.01584573454266E-06,-54.0812835693359
1.02136663527387E-06,-53.7912940979004
1.02688753600508E-06,-53.5136451721191
1.03240843673629E-06,-53.254322052002
1.0379293374675E-06,-53.0193023681641
1.04345023819871E-06,-52.8145637512207
1.04897113892992E-06,-52.6460914611816
1.05449203966113E-06,-52.5198669433594
1.06001294039234E-06,-52.4434967041016
1.06553384112355E-06,-52.4203567504883
1.07105474185476E-06,-52.4424858093262
1.07657564258597E-06,-52.50146484375
1.08209654331718E-06,-52.5888824462891
1.08761744404839E-06,-52.6963233947754
1.0931383447796E-06,-52.8153800964355
1.09865924551081E-06,-52.9376335144043
1.10418014624202E-06,-53.0546722412109
1.10970104697323E-06,-53.1580848693848
1.11522194770444E-06,-53.2394523620605
1.12074284843565E-06,-53.2903709411621
1.12626374916686E-06,-53.3086929321289
1.13178464989807E-06,-53.3126487731934
1.13730555062928E-06,-53.305347442627
1.14282645136049E-06,-53.2881469726563
1.1483473520917E-06,-53.2624092102051
1.15386825282291E-06,-53.2294883728027
1.15938915355412E-06,-53.190746307373
1.16491005428533E-06,-53.1475372314453
1.17043095501654E-06,-53.1012229919434
1.17595185574775E-06,-53.0531616210938
1.18147275647896E-06,-53.004711151123
1.18699365721017E-06,-52.9572334289551
1.19251455794138E-06,-52.902156829834
1.19803545867259E-06,-52.8000717163086
1.2035563594038E-06,-52.6593933105469
1.20907726013501E-06,-52.4947700500488
1.21459816086622E-06,-52.3208694458008
1.22011906159743E-06,-52.1523475646973
1.22563996232864E-06,-52.0038604736328
1.23116086305985E-06,-51.8900718688965
1.23668176379106E-06,-51.8256378173828
1.24220266452227E-06,-51.8252182006836
1.24772356525348E-06,-51.9034729003906
1.25324446598469E-06,-52.0750617980957
1.2587653667159E-06,-52.3626899719238
1.26428626744711E-06,-52.8134613037109
1.26980716817832E-06,-53.404899597168
1.27532806890953E-06,-54.1037826538086
1.28084896964074E-06,-54.876880645752
1.28636987037195E-06,-55.6909713745117
1.29189077110316E-06,-56.512825012207
1.29741167183437E-06,-57.3092193603516
1.30293257256558E-06,-58.0469245910645
1.30845347329679E-06,-58.6927185058594
1.313974374028E-06,-59.2133750915527
1.31949527475921E-06,-59.5756645202637
1.32501617549042E-06,-59.7515907287598
1.33053707622163E-06,-59.7707595825195
1.33605797695284E-06,-59.6605033874512
1.34157887768405E-06,-59.4407920837402
1.34709977841526E-06,-59.1316108703613
1.35262067914647E-06,-58.7529296875
1.35814157987768E-06,-58.3247375488281
1.36366248060889E-06,-57.8670043945313
1.3691833813401E-06,-57.3997077941895
1.37470428207131E-06,-56.9428329467773
1.38022518280252E-06,-56.5163497924805
1.38574608353373E-06,-56.1402435302734
1.39126698426494E-06,-55.8294143676758
1.39678788499615E-06,-55.5345726013184
1.40230878572736E-06,-55.2392349243164
1.40782968645858E-06,-54.9447555541992
1.41335058718979E-06,-54.6524848937988
1.418871487921E-06,-54.3637657165527
1.42439238865221E-06,-54.079948425293
1.42991328938342E-06,-53.8023834228516
1.43543419011463E-06,-53.5324172973633
1.44095509084584E-06,-53.2713966369629
1.44647599157705E-06,-53.0206756591797
1.45199689230826E-06,-52.7816009521484
1.45751779303947E-06,-52.5565719604492
1.46303869377068E-06,-52.365062713623
1.46855959450189E-06,-52.2071113586426
1.4740804952331E-06,-52.0736656188965
1.47960139596431E-06,-51.9556655883789
1.48512229669552E-06,-51.8440589904785
1.49064319742673E-06,-51.729793548584
1.49616409815794E-06,-51.603816986084
1.50168499888915E-06,-51.4570655822754
1.50720589962036E-06,-51.2804946899414
1.51272680035157E-06,-51.0650482177734
1.51824770108278E-06,-50.8016662597656
1.52376860181399E-06,-50.481502532959
1.5292895025452E-06,-50.1066818237305
1.53481040327641E-06,-49.6857261657715
1.54033130400762E-06,-49.2250747680664
1.54585220473883E-06,-48.7311515808105
1.55137310547004E-06,-48.2103958129883
1.55689400620125E-06,-47.6692352294922
1.56241490693246E-06,-47.1141052246094
1.56793580766367E-06,-46.5514373779297
1.57345670839488E-06,-45.987663269043
1.57897760912609E-06,-45.4292182922363
1.5844985098573E-06,-44.8825302124023
1.59001941058851E-06,-44.3537292480469
1.59554031131972E-06,-43.8206024169922
1.60106121205093E-06,-43.2700080871582
1.60658211278214E-06,-42.7072563171387
1.61210301351335E-06,-42.1376647949219
1.61762391424456E-06,-41.5665435791016
1.62314481497577E-06,-40.9992065429688
1.62866571570698E-06,-40.440975189209
1.63418661643819E-06,-39.8971519470215
1.6397075171694E-06,-39.3730621337891
1.64522841790061E-06,-38.8740119934082
1.65074931863182E-06,-38.4053192138672
1.65627021936303E-06,-37.9722785949707
1.66179112009424E-06,-37.5640182495117
1.66731202082545E-06,-37.1695175170898
1.67283292155666E-06,-36.790657043457
1.67835382228787E-06,-36.429328918457
1.68387472301908E-06,-36.0874176025391
1.68939562375029E-06,-35.7668151855469
1.6949165244815E-06,-35.4694023132324
1.70043742521271E-06,-35.1970672607422
1.70595832594392E-06,-34.9517021179199
1.71147922667513E-06,-34.7351875305176
1.71700012740634E-06,-34.5494117736816
1.72252102813755E-06,-34.3962669372559
1.72804192886876E-06,-34.2718353271484
1.73356282959997E-06,-34.1708297729492
1.73908373033118E-06,-34.0944023132324
1.74460463106239E-06,-34.0437278747559
1.7501255317936E-06,-34.0199699401855
1.75564643252481E-06,-34.0242958068848
1.76116733325602E-06,-34.0578727722168
1.76668823398723E-06,-34.1218643188477
1.77220913471844E-06,-34.2174415588379
1.77773003544965E-06,-34.3457717895508
1.78325093618086E-06,-34.5080223083496
1.78877183691207E-06,-34.7053527832031
1.79429273764328E-06,-34.9388122558594
1.79981363837449E-06,-35.2079162597656
1.8053345391057E-06,-35.5114097595215
1.81085543983691E-06,-35.848030090332
1.81637634056812E-06,-36.2165107727051
1.82189724129933E-06,-36.615592956543
1.82741814203054E-06,-37.0440101623535
1.83293904276175E-06,-37.5004959106445
1.83845994349296E-06,-37.9837913513184
1.84398084422417E-06,-38.4926338195801
1.84950174495538E-06,-39.0257568359375
1.85502264568659E-06,-39.5818977355957
1.8605435464178E-06,-40.1768226623535
1.86606444714901E-06,-40.8369979858398
1.87158534788022E-06,-41.551082611084
1.87710624861143E-06,-42.3067398071289
1.88262714934264E-06,-43.0916328430176
1.88814805007385E-06,-43.8934364318848
1.89366895080506E-06,-44.6998100280762
1.89918985153627E-06,-45.498420715332
1.90471075226748E-06,-46.2769355773926
1.91023165299869E-06,-47.023021697998
1.9157525537299E-06,-47.7243423461914
1.92127345446111E-06,-48.3685684204102
1.92679435519232E-06,-48.9458541870117
1.93231525592353E-06,-49.4622230529785
1.93783615665474E-06,-49.9292144775391
1.94335705738595E-06,-50.3583374023438
1.94887795811716E-06,-50.7610893249512
1.95439885884837E-06,-51.1489715576172
1.95991975957958E-06,-51.5334854125977
1.9654406603108E-06,-51.9261283874512
1.970961561042E-06,-52.3384094238281
1.97648246177322E-06,-52.7818222045898
1.98200336250443E-06,-53.2678718566895
1.98752426323564E-06,-53.8080558776855
1.99304516396685E-06,-54.434383392334
1.99856606469806E-06,-55.2039108276367
2.00408696542927E-06,-56.0854721069336
2.00960786616048E-06,-57.0415191650391
2.01512876689169E-06,-58.0345115661621
2.0206496676229E-06,-59.0269050598145
2.02617056835411E-06,-59.9811592102051
2.03169146908532E-06,-60.859733581543
2.03721236981653E-06,-61.6250839233398
2.04273327054774E-06,-62.2396659851074
2.04825417127895E-06,-62.6659393310547
2.05377507201016E-06,-62.8663635253906
2.05929597274137E-06,-62.8062133789063
2.06481687347258E-06,-62.4914131164551
2.07033777420379E-06,-61.9583053588867
2.075858674935E-06,-61.243953704834
2.08137957566621E-06,-60.3854217529297
2.08690047639742E-06,-59.4197731018066
2.09242137712863E-06,-58.3840713500977
2.09794227785984E-06,-57.3153800964355
2.10346317859105E-06,-56.2507629394531
2.10898407932226E-06,-55.2272872924805
2.11450498005347E-06,-54.2820129394531
2.12002588078468E-06,-53.4520072937012
2.12554678151589E-06,-52.7517318725586
2.1310676822471E-06,-52.0754203796387
2.13658858297831E-06,-51.4082527160645
2.14210948370952E-06,-50.755069732666
2.14763038444073E-06,-50.1207122802734
2.15315128517194E-06,-49.5100288391113
2.15867218590315E-06,-48.9278564453125
2.16419308663436E-06,-48.379035949707
2.16971398736557E-06,-47.8684120178223
2.17523488809678E-06,-47.4008255004883
2.18075578882799E-06,-46.9811210632324
2.1862766895592E-06,-46.6141395568848
2.19179759029041E-06,-46.301441192627
2.19731849102162E-06,-46.0215339660645
2.20283939175283E-06,-45.7726707458496
2.20836029248404E-06,-45.5586242675781
2.21388119321525E-06,-45.3831596374512
2.21940209394646E-06,-45.2500534057617
2.22492299467767E-06,-45.1630744934082
2.23044389540888E-06,-45.1259956359863
2.23596479614009E-06,-45.1425857543945
2.2414856968713E-06,-45.2166213989258
2.24700659760251E-06,-45.3518714904785
2.25252749833372E-06,-45.5521049499512
2.25804839906493E-06,-45.8255004882813
2.26356929979614E-06,-46.2180862426758
2.26909020052735E-06,-46.7241439819336
2.27461110125856E-06,-47.3221244812012
2.28013200198977E-06,-47.9904670715332
2.28565290272098E-06,-48.7076225280762
2.29117380345219E-06,-49.452033996582
2.2966947041834E-06,-50.2021446228027
2.30221560491461E-06,-50.9364051818848
2.30773650564582E-06,-51.6332588195801
2.31325740637703E-06,-52.2711486816406
2.31877830710824E-06,-52.8285217285156
2.32429920783945E-06,-53.2872161865234
2.32982010857066E-06,-53.6913566589355
2.33534100930187E-06,-54.0618286132813
2.34086191003308E-06,-54.3996887207031
2.34638281076429E-06,-54.7059936523438
2.3519037114955E-06,-54.9818077087402
2.35742461222671E-06,-55.2281913757324
2.36294551295792E-06,-55.4462051391602
2.36846641368913E-06,-55.6369094848633
2.37398731442034E-06,-55.8013610839844
2.37950821515155E-06,-55.9406280517578
2.38502911588276E-06,-56.0557670593262
2.39055001661397E-06,-56.1446495056152
2.39607091734518E-06,-56.118579864502
2.40159181807639E-06,-55.9637145996094
2.4071127188076E-06,-55.7163619995117
2.41263361953881E-06,-55.4128265380859
2.41815452027002E-06,-55.0894165039063
2.42367542100123E-06,-54.7824401855469
2.42919632173244E-06,-54.528205871582
2.43471722246365E-06,-54.3630180358887
2.44023812319486E-06,-54.3231887817383
2.44575902392607E-06,-54.4450225830078
2.45127992465728E-06,-54.7648315429688
2.45680082538849E-06,-55.3203659057617
2.4623217261197E-06,-56.2255859375
2.46784262685091E-06,-57.4787178039551
2.47336352758212E-06,-59.0008583068848
2.47888442831333E-06,-60.7131156921387
2.48440532904454E-06,-62.5365791320801
2.48992622977575E-06,-64.3923568725586
2.49544713050696E-06,-66.201545715332
2.50096803123817E-06,-67.8852462768555
2.50648893196938E-06,-69.3645629882813
2.51200983270059E-06,-70.5605926513672
2.5175307334318E-06,-71.3944396972656
2.52305163416301E-06,-71.7872848510742
2.52857253489422E-06,-71.7169418334961
2.53409343562543E-06,-71.2520065307617
2.53961433635665E-06,-70.458740234375
2.54513523708785E-06,-69.4033737182617
2.55065613781907E-06,-68.1521530151367
2.55617703855028E-06,-66.7713241577148
2.56169793928149E-06,-65.3271331787109
2.5672188400127E-06,-63.8858222961426
2.57273974074391E-06,-62.5136337280273
2.57826064147512E-06,-61.2768135070801
2.58378154220633E-06,-60.2416038513184
2.58930244293754E-06,-59.474250793457
2.59482334366875E-06,-58.8979339599609
2.60034424439996E-06,-58.3830261230469
2.60586514513117E-06,-57.9318885803223
2.61138604586238E-06,-57.5469398498535
2.61690694659359E-06,-57.2305908203125
2.6224278473248E-06,-56.9852600097656
2.62794874805601E-06,-56.8133544921875
2.63346964878722E-06,-56.7172927856445
2.63899054951843E-06,-56.6994895935059
2.64451145024964E-06,-56.7623558044434
2.65003235098085E-06,-56.9083099365234
2.65555325171206E-06,-57.139762878418
2.66107415244327E-06,-57.5289344787598
2.66659505317448E-06,-58.1470527648926
2.67211595390569E-06,-58.9464340209961
2.6776368546369E-06,-59.8785591125488
2.68315775536811E-06,-60.894905090332
2.68867865609932E-06,-61.9469528198242
2.69419955683053E-06,-62.9861831665039
2.69972045756174E-06,-63.9640769958496
2.70524135829295E-06,-64.8321151733398
2.71076225902416E-06,-65.5417785644531
2.71628315975537E-06,-66.0445404052734
2.72180406048658E-06,-66.2918853759766
2.72732496121779E-06,-66.2571640014648
