Trace
Swept SA
A.19.55,N9020B
508 AB2 B25 B40 B85 DP2 DP4 EP2 FS1 FS2 MPB RTL ,01
Segment,0
Number of Points,81920
Sweep Time,0.0004096
Start Frequency,2400000000
Stop Frequency,2400000000
Average Count,0
Average Type,LogPower(Video)
RBW,3000000
RBW Filter,Gaussian
RBW Filter BW,3dB
VBW,3000000
Sweep Type,Swept
X Axis Scale,Lin
PreAmp State,Off
PreAmp Band,Low
Trigger Source,Ext1
Trigger Level,1.2
Trigger Slope,Positive
Trigger Delay,1E-06
Phase Noise Optimization,Fast
Swept If Gain,Low
FFT If Gain,Autorange
RF Coupling,AC
FFT Width,411900
Ext Ref,10000000
Input,RF
RF Calibrator,Off
Attenuation,6
Ref Level Offset,0
External Gain,0
Trace Type,Clearwrite
Detector,Normal
Trace Math,Off
Trace Math Oper1,Trace5
Trace Math Oper2,Trace6
Trace Math Offset,0
Normalize,Off
Trace Name,Trace1
X Axis Units,s
Y Axis Units,dBm
DATA
0,-71.633659362793
5.00006103590132E-09,-71.8797912597656
1.00001220718026E-08,-72.1521224975586
1.50001831077039E-08,-72.4454650878906
2.00002441436053E-08,-72.7546463012695
2.50003051795066E-08,-73.0744781494141
3.00003662154079E-08,-73.3997955322266
3.50004272513092E-08,-73.7254104614258
4.00004882872105E-08,-74.0461502075195
4.50005493231118E-08,-74.3568344116211
5.00006103590132E-08,-74.6522903442383
5.50006713949145E-08,-74.9273300170898
6.00007324308158E-08,-75.1782608032227
6.50007934667171E-08,-75.4204788208008
7.00008545026184E-08,-75.6588745117188
7.50009155385197E-08,-75.8927307128906
8.00009765744211E-08,-76.1213455200195
8.50010376103224E-08,-76.3440093994141
9.00010986462237E-08,-76.5600204467773
9.5001159682125E-08,-76.768669128418
1.00001220718026E-07,-76.9692459106445
1.05001281753928E-07,-77.1610488891602
1.10001342789829E-07,-77.3433685302734
1.1500140382573E-07,-77.515495300293
1.20001464861632E-07,-77.6767196655273
1.25001525897533E-07,-77.8263473510742
1.30001586933434E-07,-77.9574584960938
1.35001647969336E-07,-78.066162109375
1.40001709005237E-07,-78.1563110351563
1.45001770041138E-07,-78.2317352294922
1.50001831077039E-07,-78.2962875366211
1.55001892112941E-07,-78.3538055419922
1.60001953148842E-07,-78.4081268310547
1.65002014184743E-07,-78.4630966186523
1.70002075220645E-07,-78.5225601196289
1.75002136256546E-07,-78.5903472900391
1.80002197292447E-07,-78.6703109741211
1.85002258328349E-07,-78.7662887573242
1.9000231936425E-07,-78.8821258544922
1.95002380400151E-07,-79.01806640625
2.00002441436053E-07,-79.1643295288086
2.05002502471954E-07,-79.3196716308594
2.10002563507855E-07,-79.4836654663086
2.15002624543757E-07,-79.655891418457
2.20002685579658E-07,-79.8359222412109
2.25002746615559E-07,-80.0233459472656
2.30002807651461E-07,-80.2177429199219
2.35002868687362E-07,-80.4186706542969
2.40002929723263E-07,-80.625732421875
2.45002990759165E-07,-80.8384857177734
2.50003051795066E-07,-81.056510925293
2.55003112830967E-07,-81.2793960571289
2.60003173866868E-07,-81.5090103149414
2.6500323490277E-07,-81.7722091674805
2.70003295938671E-07,-82.0697326660156
2.75003356974572E-07,-82.3924789428711
2.80003418010474E-07,-82.7313613891602
2.85003479046375E-07,-83.077278137207
2.90003540082276E-07,-83.4211349487305
2.95003601118178E-07,-83.7538452148438
3.00003662154079E-07,-84.0663146972656
3.0500372318998E-07,-84.3494415283203
3.10003784225882E-07,-84.5941314697266
3.15003845261783E-07,-84.7912979125977
3.20003906297684E-07,-84.9318466186523
3.25003967333586E-07,-85.0066757202148
3.30004028369487E-07,-85.018669128418
3.35004089405388E-07,-84.9799270629883
3.4000415044129E-07,-84.8951873779297
3.45004211477191E-07,-84.7692108154297
3.50004272513092E-07,-84.6067276000977
3.55004333548993E-07,-84.4124908447266
3.60004394584895E-07,-84.1912460327148
3.65004455620796E-07,-83.9477310180664
3.70004516656697E-07,-83.6867065429688
3.75004577692599E-07,-83.4129104614258
3.800046387285E-07,-83.1310882568359
3.85004699764401E-07,-82.8459854125977
3.90004760800303E-07,-82.5623397827148
3.95004821836204E-07,-82.2739181518555
4.00004882872105E-07,-81.9505233764648
4.05004943908007E-07,-81.5958480834961
4.10005004943908E-07,-81.2163696289063
4.15005065979809E-07,-80.8185501098633
4.20005127015711E-07,-80.4088745117188
4.25005188051612E-07,-79.9938125610352
4.30005249087513E-07,-79.579833984375
4.35005310123415E-07,-79.1734161376953
4.40005371159316E-07,-78.7810287475586
4.45005432195217E-07,-78.4091415405273
4.50005493231119E-07,-78.0642318725586
4.5500555426702E-07,-77.7527770996094
4.60005615302921E-07,-77.4792861938477
4.65005676338822E-07,-77.2233657836914
4.70005737374724E-07,-76.978874206543
4.75005798410625E-07,-76.7471237182617
4.80005859446526E-07,-76.5293960571289
4.85005920482428E-07,-76.3270034790039
4.90005981518329E-07,-76.141227722168
4.9500604255423E-07,-75.9733657836914
5.00006103590132E-07,-75.8247146606445
5.05006164626033E-07,-75.6965789794922
5.10006225661934E-07,-75.5902481079102
5.15006286697836E-07,-75.5070114135742
5.20006347733737E-07,-75.4481735229492
5.25006408769638E-07,-75.4150238037109
5.3000646980554E-07,-75.4057388305664
5.35006530841441E-07,-75.4176330566406
5.40006591877342E-07,-75.4507217407227
5.45006652913243E-07,-75.5050201416016
5.50006713949145E-07,-75.5805358886719
5.55006774985046E-07,-75.6772918701172
5.60006836020948E-07,-75.795295715332
5.65006897056849E-07,-75.9345626831055
5.7000695809275E-07,-76.0951080322266
5.75007019128651E-07,-76.2769470214844
5.80007080164553E-07,-76.4800872802734
5.85007141200454E-07,-76.7045516967773
5.90007202236355E-07,-76.9503479003906
5.95007263272257E-07,-77.2273788452148
6.00007324308158E-07,-77.5628662109375
6.05007385344059E-07,-77.9489440917969
6.10007446379961E-07,-78.3750534057617
6.15007507415862E-07,-78.8306655883789
6.20007568451763E-07,-79.3052139282227
6.25007629487665E-07,-79.7881698608398
6.30007690523566E-07,-80.2689743041992
6.35007751559467E-07,-80.7370910644531
6.40007812595369E-07,-81.1819763183594
6.4500787363127E-07,-81.5930709838867
6.50007934667171E-07,-81.959831237793
6.55007995703072E-07,-82.2717208862305
6.60008056738974E-07,-82.5201187133789
6.65008117774875E-07,-82.7235488891602
6.70008178810776E-07,-82.8917922973633
6.75008239846678E-07,-83.0279388427734
6.80008300882579E-07,-83.1350784301758
6.8500836191848E-07,-83.2162933349609
6.90008422954382E-07,-83.2746734619141
6.95008483990283E-07,-83.3133010864258
7.00008545026184E-07,-83.3352584838867
7.05008606062086E-07,-83.3436431884766
7.10008667097987E-07,-83.3415298461914
7.15008728133888E-07,-83.3320083618164
7.2000878916979E-07,-83.3181686401367
7.25008850205691E-07,-83.303092956543
7.30008911241592E-07,-83.2702102661133
7.35008972277494E-07,-83.2048568725586
7.40009033313395E-07,-83.1130142211914
7.45009094349296E-07,-83.0006713867188
7.50009155385198E-07,-82.8738098144531
7.55009216421099E-07,-82.7384033203125
7.60009277457E-07,-82.6004333496094
7.65009338492901E-07,-82.4658813476563
7.70009399528803E-07,-82.3407363891602
7.75009460564704E-07,-82.2309722900391
7.80009521600605E-07,-82.1425704956055
7.85009582636507E-07,-82.0815124511719
7.90009643672408E-07,-82.0537719726563
7.95009704708309E-07,-82.0601577758789
8.00009765744211E-07,-82.0865020751953
8.05009826780112E-07,-82.1305618286133
8.10009887816013E-07,-82.1912612915039
8.15009948851915E-07,-82.2675094604492
8.20010009887816E-07,-82.3582458496094
8.25010070923717E-07,-82.4623718261719
8.30010131959619E-07,-82.5788192749023
8.3501019299552E-07,-82.7065048217773
8.40010254031421E-07,-82.8443450927734
8.45010315067323E-07,-82.9912643432617
8.50010376103224E-07,-83.1461791992188
8.55010437139125E-07,-83.3080139160156
8.60010498175026E-07,-83.4772186279297
8.65010559210928E-07,-83.6713485717773
8.70010620246829E-07,-83.8916091918945
8.7501068128273E-07,-84.1327896118164
8.80010742318632E-07,-84.3896865844727
8.85010803354533E-07,-84.6570739746094
8.90010864390434E-07,-84.9297561645508
8.95010925426336E-07,-85.2024993896484
9.00010986462237E-07,-85.4701080322266
9.05011047498138E-07,-85.7273559570313
9.1001110853404E-07,-85.9690399169922
9.15011169569941E-07,-86.1899490356445
9.20011230605842E-07,-86.3848648071289
9.25011291641744E-07,-86.5485763549805
9.30011352677645E-07,-86.6846618652344
9.35011413713546E-07,-86.8013687133789
9.40011474749448E-07,-86.9004745483398
9.45011535785349E-07,-86.983757019043
9.5001159682125E-07,-87.0530014038086
9.55011657857151E-07,-87.109977722168
9.60011718893053E-07,-87.1564788818359
9.65011779928954E-07,-87.1942825317383
9.70011840964855E-07,-87.2251663208008
9.75011902000757E-07,-87.2509078979492
9.80011963036658E-07,-87.2732925415039
9.85012024072559E-07,-87.2940979003906
9.90012085108461E-07,-87.3151092529297
9.95012146144362E-07,-87.332275390625
1.00001220718026E-06,-87.32958984375
1.00501226821616E-06,-87.3097839355469
1.01001232925207E-06,-87.2771148681641
1.01501239028797E-06,-87.2358016967773
1.02001245132387E-06,-87.1901016235352
1.02501251235977E-06,-87.1442413330078
1.03001257339567E-06,-87.1024627685547
1.03501263443157E-06,-87.0690155029297
1.04001269546747E-06,-87.0481262207031
1.04501275650338E-06,-87.0440444946289
1.05001281753928E-06,-87.0610046386719
1.05501287857518E-06,-87.1032485961914
1.06001293961108E-06,-87.1767654418945
1.06501300064698E-06,-87.3038482666016
1.07001306168288E-06,-87.4809646606445
1.07501312271878E-06,-87.6963653564453
1.08001318375468E-06,-87.9383087158203
1.08501324479059E-06,-88.195068359375
1.09001330582649E-06,-88.4548950195313
1.09501336686239E-06,-88.7060623168945
1.10001342789829E-06,-88.9368209838867
1.10501348893419E-06,-89.1354293823242
1.11001354997009E-06,-89.2901611328125
1.11501361100599E-06,-89.3892669677734
1.1200136720419E-06,-89.4210205078125
1.1250137330778E-06,-89.3736724853516
1.1300137941137E-06,-89.2460327148438
1.1350138551496E-06,-89.0503997802734
1.1400139161855E-06,-88.795295715332
1.1450139772214E-06,-88.4892349243164
1.1500140382573E-06,-88.1407165527344
1.1550140992932E-06,-87.7582702636719
1.16001416032911E-06,-87.3503952026367
1.16501422136501E-06,-86.9256057739258
1.17001428240091E-06,-86.4924240112305
1.17501434343681E-06,-86.0593566894531
1.18001440447271E-06,-85.6349182128906
1.18501446550861E-06,-85.2276229858398
1.19001452654451E-06,-84.8459777832031
1.19501458758041E-06,-84.4873657226563
1.20001464861632E-06,-84.1213302612305
1.20501470965222E-06,-83.7476501464844
1.21001477068812E-06,-83.3687744140625
1.21501483172402E-06,-82.9871673583984
1.22001489275992E-06,-82.6052703857422
1.22501495379582E-06,-82.2255401611328
1.23001501483172E-06,-81.8504333496094
1.23501507586763E-06,-81.4823913574219
1.24001513690353E-06,-81.1238784790039
1.24501519793943E-06,-80.7773513793945
1.25001525897533E-06,-80.4452438354492
1.25501532001123E-06,-80.1300277709961
1.26001538104713E-06,-79.8334808349609
1.26501544208303E-06,-79.5487899780273
1.27001550311893E-06,-79.2736358642578
1.27501556415484E-06,-79.008186340332
1.28001562519074E-06,-78.7526245117188
1.28501568622664E-06,-78.5071182250977
1.29001574726254E-06,-78.2718276977539
1.29501580829844E-06,-78.0469284057617
1.30001586933434E-06,-77.8325958251953
1.30501593037024E-06,-77.6289978027344
1.31001599140614E-06,-77.4362945556641
1.31501605244205E-06,-77.2546691894531
1.32001611347795E-06,-77.0842895507813
1.32501617451385E-06,-76.9253158569336
1.33001623554975E-06,-76.7771148681641
1.33501629658565E-06,-76.6390686035156
1.34001635762155E-06,-76.511360168457
1.34501641865745E-06,-76.3941955566406
1.35001647969336E-06,-76.2877731323242
1.35501654072926E-06,-76.1922836303711
1.36001660176516E-06,-76.1079330444336
1.36501666280106E-06,-76.034912109375
1.37001672383696E-06,-75.9734115600586
1.37501678487286E-06,-75.9236450195313
1.38001684590876E-06,-75.8857955932617
1.38501690694466E-06,-75.8600692749023
1.39001696798057E-06,-75.8466567993164
1.39501702901647E-06,-75.8456039428711
1.40001709005237E-06,-75.8564529418945
1.40501715108827E-06,-75.8791351318359
1.41001721212417E-06,-75.9136047363281
1.41501727316007E-06,-75.9598083496094
1.42001733419597E-06,-76.017707824707
1.42501739523188E-06,-76.0872573852539
1.43001745626778E-06,-76.1684112548828
1.43501751730368E-06,-76.261116027832
1.44001757833958E-06,-76.3653335571289
1.44501763937548E-06,-76.4810180664063
1.45001770041138E-06,-76.6081161499023
1.45501776144728E-06,-76.7465972900391
1.46001782248318E-06,-76.8970642089844
1.46501788351909E-06,-77.0672912597656
1.47001794455499E-06,-77.2574310302734
1.47501800559089E-06,-77.4647750854492
1.48001806662679E-06,-77.6866226196289
1.48501812766269E-06,-77.9202728271484
1.49001818869859E-06,-78.1630249023438
1.49501824973449E-06,-78.4121627807617
1.5000183107704E-06,-78.6650085449219
1.5050183718063E-06,-78.9188385009766
1.5100184328422E-06,-79.1709594726563
1.5150184938781E-06,-79.4186706542969
1.520018554914E-06,-79.6592712402344
1.5250186159499E-06,-79.8900527954102
1.5300186769858E-06,-80.119758605957
1.5350187380217E-06,-80.3573303222656
1.54001879905761E-06,-80.6003265380859
1.54501886009351E-06,-80.846321105957
1.55001892112941E-06,-81.092887878418
1.55501898216531E-06,-81.3375930786133
1.56001904320121E-06,-81.5780181884766
1.56501910423711E-06,-81.8117294311523
1.57001916527301E-06,-82.0362930297852
1.57501922630891E-06,-82.2492828369141
1.58001928734482E-06,-82.4482727050781
1.58501934838072E-06,-82.6308364868164
1.59001940941662E-06,-82.7945404052734
1.59501947045252E-06,-82.943603515625
1.60001953148842E-06,-83.096305847168
1.60501959252432E-06,-83.2499313354492
1.61001965356022E-06,-83.4000854492188
1.61501971459613E-06,-83.542366027832
1.62001977563203E-06,-83.67236328125
1.62501983666793E-06,-83.7856750488281
1.63001989770383E-06,-83.8778991699219
1.63501995873973E-06,-83.9446334838867
1.64002001977563E-06,-83.9814682006836
1.64502008081153E-06,-83.9840087890625
1.65002014184743E-06,-83.9478530883789
1.65502020288334E-06,-83.8685836791992
1.66002026391924E-06,-83.7417831420898
1.66502032495514E-06,-83.5652923583984
1.67002038599104E-06,-83.3430786132813
1.67502044702694E-06,-83.0799102783203
1.68002050806284E-06,-82.7805633544922
1.68502056909874E-06,-82.4498138427734
1.69002063013465E-06,-82.0924377441406
1.69502069117055E-06,-81.7132110595703
1.70002075220645E-06,-81.31689453125
1.70502081324235E-06,-80.9082794189453
1.71002087427825E-06,-80.4921340942383
1.71502093531415E-06,-80.0732269287109
1.72002099635005E-06,-79.6563415527344
1.72502105738595E-06,-79.2462463378906
1.73002111842186E-06,-78.8263702392578
1.73502117945776E-06,-78.3801727294922
1.74002124049366E-06,-77.9125061035156
1.74502130152956E-06,-77.4281921386719
1.75002136256546E-06,-76.9320755004883
1.75502142360136E-06,-76.4289932250977
1.76002148463726E-06,-75.9237899780273
1.76502154567316E-06,-75.4212875366211
1.77002160670907E-06,-74.9263381958008
1.77502166774497E-06,-74.4437713623047
1.78002172878087E-06,-73.9784317016602
1.78502178981677E-06,-73.53515625
1.79002185085267E-06,-73.1187744140625
1.79502191188857E-06,-72.727897644043
1.80002197292447E-06,-72.3454666137695
1.80502203396038E-06,-71.9712905883789
1.81002209499628E-06,-71.6066589355469
1.81502215603218E-06,-71.2528762817383
1.82002221706808E-06,-70.9112167358398
1.82502227810398E-06,-70.5830001831055
1.83002233913988E-06,-70.2695007324219
1.83502240017578E-06,-69.9720230102539
1.84002246121168E-06,-69.6918640136719
1.84502252224759E-06,-69.4303131103516
1.85002258328349E-06,-69.1886596679688
1.85502264431939E-06,-68.9682159423828
1.86002270535529E-06,-68.7697906494141
1.86502276639119E-06,-68.5883712768555
1.87002282742709E-06,-68.4227294921875
1.87502288846299E-06,-68.2734451293945
1.8800229494989E-06,-68.1411056518555
1.8850230105348E-06,-68.0263061523438
1.8900230715707E-06,-67.9296340942383
1.8950231326066E-06,-67.8516693115234
1.9000231936425E-06,-67.7930145263672
1.9050232546784E-06,-67.7542495727539
1.9100233157143E-06,-67.735969543457
1.9150233767502E-06,-67.7387619018555
1.92002343778611E-06,-67.7632064819336
1.92502349882201E-06,-67.8098983764648
1.93002355985791E-06,-67.8817367553711
1.93502362089381E-06,-67.9800186157227
1.94002368192971E-06,-68.1029434204102
1.94502374296561E-06,-68.2486953735352
1.95002380400151E-06,-68.4154663085938
1.95502386503741E-06,-68.6014556884766
1.96002392607332E-06,-68.8048477172852
1.96502398710922E-06,-69.0238494873047
1.97002404814512E-06,-69.2566375732422
1.97502410918102E-06,-69.5014190673828
1.98002417021692E-06,-69.7563781738281
1.98502423125282E-06,-70.0197067260742
1.99002429228872E-06,-70.2895965576172
1.99502435332463E-06,-70.570671081543
2.00002441436053E-06,-70.8805999755859
2.00502447539643E-06,-71.216178894043
2.01002453643233E-06,-71.5725784301758
2.01502459746823E-06,-71.944938659668
2.02002465850413E-06,-72.3283996582031
2.02502471954003E-06,-72.7181243896484
2.03002478057593E-06,-73.109260559082
2.03502484161184E-06,-73.4969482421875
2.04002490264774E-06,-73.8763427734375
2.04502496368364E-06,-74.2425918579102
2.05002502471954E-06,-74.5908508300781
2.05502508575544E-06,-74.916259765625
2.06002514679134E-06,-75.2155990600586
2.06502520782724E-06,-75.5061569213867
2.07002526886315E-06,-75.7925415039063
2.07502532989905E-06,-76.0730819702148
2.08002539093495E-06,-76.3461074829102
2.08502545197085E-06,-76.6099548339844
2.09002551300675E-06,-76.8629379272461
2.09502557404265E-06,-77.1033935546875
2.10002563507855E-06,-77.3296432495117
2.10502569611445E-06,-77.5400314331055
2.11002575715036E-06,-77.7328643798828
2.11502581818626E-06,-77.906494140625
2.12002587922216E-06,-78.0592269897461
2.12502594025806E-06,-78.1894073486328
2.13002600129396E-06,-78.2944183349609
2.13502606232986E-06,-78.3743515014648
2.14002612336576E-06,-78.4316253662109
2.14502618440166E-06,-78.468620300293
2.15002624543757E-06,-78.4877548217773
2.15502630647347E-06,-78.4914245605469
2.16002636750937E-06,-78.4820251464844
2.16502642854527E-06,-78.4619598388672
2.17002648958117E-06,-78.4336242675781
2.17502655061707E-06,-78.3994293212891
2.18002661165297E-06,-78.3617782592773
2.18502667268888E-06,-78.3230514526367
2.19002673372478E-06,-78.2856750488281
2.19502679476068E-06,-78.2459411621094
2.20002685579658E-06,-78.1871185302734
2.20502691683248E-06,-78.1114959716797
2.21002697786838E-06,-78.0229263305664
2.21502703890428E-06,-77.9252319335938
2.22002709994018E-06,-77.8222579956055
2.22502716097609E-06,-77.7178497314453
2.23002722201199E-06,-77.6158447265625
2.23502728304789E-06,-77.5200805664063
2.24002734408379E-06,-77.4344024658203
2.24502740511969E-06,-77.3626403808594
2.25002746615559E-06,-77.3086395263672
2.25502752719149E-06,-77.276237487793
2.2600275882274E-06,-77.26806640625
2.2650276492633E-06,-77.2713623046875
2.2700277102992E-06,-77.2825012207031
2.2750277713351E-06,-77.3024673461914
2.280027832371E-06,-77.3322677612305
2.2850278934069E-06,-77.3728866577148
2.2900279544428E-06,-77.4253234863281
2.2950280154787E-06,-77.4905853271484
2.30002807651461E-06,-77.5696487426758
2.30502813755051E-06,-77.6635284423828
2.31002819858641E-06,-77.7732086181641
2.31502825962231E-06,-77.8996963500977
2.32002832065821E-06,-78.0439758300781
2.32502838169411E-06,-78.2070465087891
2.33002844273001E-06,-78.4090423583984
2.33502850376592E-06,-78.6624450683594
2.34002856480182E-06,-78.956787109375
2.34502862583772E-06,-79.2816162109375
2.35002868687362E-06,-79.6264572143555
2.35502874790952E-06,-79.980842590332
2.36002880894542E-06,-80.3343124389648
2.36502886998132E-06,-80.676399230957
2.37002893101722E-06,-80.9966354370117
2.37502899205313E-06,-81.2845611572266
2.38002905308903E-06,-81.5297164916992
2.38502911412493E-06,-81.7216186523438
2.39002917516083E-06,-81.8498153686523
2.39502923619673E-06,-81.9112777709961
2.40002929723263E-06,-81.9262161254883
2.40502935826853E-06,-81.8998794555664
2.41002941930443E-06,-81.8359146118164
2.41502948034034E-06,-81.7379608154297
2.42002954137624E-06,-81.6096725463867
2.42502960241214E-06,-81.4546813964844
2.43002966344804E-06,-81.2766494750977
2.43502972448394E-06,-81.0792083740234
2.44002978551984E-06,-80.8660125732422
2.44502984655574E-06,-80.6407012939453
2.45002990759165E-06,-80.4069213867188
2.45502996862755E-06,-80.1683197021484
2.46003002966345E-06,-79.9257888793945
2.46503009069935E-06,-79.6482849121094
2.47003015173525E-06,-79.3321228027344
