Trace
Swept SA
A.19.55,N9020B
508 AB2 B25 B40 B85 DP2 DP4 EP2 FS1 FS2 MPB RTL ,01
Segment,0
Number of Points,81920
Sweep Time,0.0004096
Start Frequency,2400000000
Stop Frequency,2400000000
Average Count,0
Average Type,LogPower(Video)
RBW,3000000
RBW Filter,Gaussian
RBW Filter BW,3dB
VBW,3000000
Sweep Type,Swept
X Axis Scale,Lin
PreAmp State,Off
PreAmp Band,Low
Trigger Source,Ext1
Trigger Level,1.2
Trigger Slope,Positive
Trigger Delay,1E-06
Phase Noise Optimization,Fast
Swept If Gain,Low
FFT If Gain,Autorange
RF Coupling,AC
FFT Width,411900
Ext Ref,10000000
Input,RF
RF Calibrator,Off
Attenuation,6
Ref Level Offset,0
External Gain,0
Trace Type,Clearwrite
Detector,Normal
Trace Math,Off
Trace Math Oper1,Trace5
Trace Math Oper2,Trace6
Trace Math Offset,0
Normalize,Off
Trace Name,Trace1
X Axis Units,s
Y Axis Units,dBm
DATA
0,-55.3952865600586
5.00006103590132E-09,-56.121768951416
1.00001220718026E-08,-56.898811340332
1.50001831077039E-08,-57.707836151123
2.00002441436053E-08,-58.5302619934082
2.50003051795066E-08,-59.3474998474121
3.00003662154079E-08,-60.1409759521484
3.50004272513092E-08,-60.8921089172363
4.00004882872105E-08,-61.5823097229004
4.50005493231118E-08,-62.1930046081543
5.00006103590132E-08,-62.7056045532227
5.50006713949145E-08,-63.1015319824219
6.00007324308158E-08,-63.3628730773926
6.50007934667171E-08,-63.4901542663574
7.00008545026184E-08,-63.5001907348633
7.50009155385197E-08,-63.4097595214844
8.00009765744211E-08,-63.2356300354004
8.50010376103224E-08,-62.9945831298828
9.00010986462237E-08,-62.7033882141113
9.5001159682125E-08,-62.3788223266602
1.00001220718026E-07,-62.0376586914063
1.05001281753928E-07,-61.6966705322266
1.10001342789829E-07,-61.372631072998
1.1500140382573E-07,-61.0823211669922
1.20001464861632E-07,-60.8425102233887
1.25001525897533E-07,-60.6699752807617
1.30001586933434E-07,-60.5310325622559
1.35001647969336E-07,-60.3841934204102
1.40001709005237E-07,-60.2345085144043
1.45001770041138E-07,-60.0870246887207
1.50001831077039E-07,-59.9467887878418
1.55001892112941E-07,-59.8188591003418
1.60001953148842E-07,-59.7082748413086
1.65002014184743E-07,-59.6200942993164
1.70002075220645E-07,-59.5593681335449
1.75002136256546E-07,-59.5311393737793
1.80002197292447E-07,-59.5404586791992
1.85002258328349E-07,-59.5923805236816
1.9000231936425E-07,-59.691951751709
1.95002380400151E-07,-59.8474006652832
2.00002441436053E-07,-60.0676231384277
2.05002502471954E-07,-60.3446960449219
2.10002563507855E-07,-60.6696548461914
2.15002624543757E-07,-61.0335311889648
2.20002685579658E-07,-61.4273529052734
2.25002746615559E-07,-61.8421516418457
2.30002807651461E-07,-62.2689552307129
2.35002868687362E-07,-62.6987991333008
2.40002929723263E-07,-63.1227111816406
2.45002990759165E-07,-63.5317230224609
2.50003051795066E-07,-63.916862487793
2.55003112830967E-07,-64.2691650390625
2.60003173866868E-07,-64.5833282470703
2.6500323490277E-07,-64.8990783691406
2.70003295938671E-07,-65.2250595092773
2.75003356974572E-07,-65.555419921875
2.80003418010474E-07,-65.8843460083008
2.85003479046375E-07,-66.2059936523438
2.90003540082276E-07,-66.5145263671875
2.95003601118178E-07,-66.8041229248047
3.00003662154079E-07,-67.0689392089844
3.0500372318998E-07,-67.3031463623047
3.10003784225882E-07,-67.5009155273438
3.15003845261783E-07,-67.6564025878906
3.20003906297684E-07,-67.763786315918
3.25003967333586E-07,-67.8172302246094
3.30004028369487E-07,-67.7965469360352
3.35004089405388E-07,-67.6946029663086
3.4000415044129E-07,-67.5251770019531
3.45004211477191E-07,-67.3020172119141
3.50004272513092E-07,-67.0388870239258
3.55004333548993E-07,-66.7495651245117
3.60004394584895E-07,-66.4477920532227
3.65004455620796E-07,-66.147346496582
3.70004516656697E-07,-65.8619766235352
3.75004577692599E-07,-65.6054611206055
3.800046387285E-07,-65.3915557861328
3.85004699764401E-07,-65.234016418457
3.90004760800303E-07,-65.146614074707
3.95004821836204E-07,-65.1379241943359
4.00004882872105E-07,-65.1939849853516
4.05004943908007E-07,-65.3042526245117
4.10005004943908E-07,-65.4590530395508
4.15005065979809E-07,-65.6486968994141
4.20005127015711E-07,-65.8635101318359
4.25005188051612E-07,-66.0938034057617
4.30005249087513E-07,-66.3299026489258
4.35005310123415E-07,-66.562126159668
4.40005371159316E-07,-66.7807922363281
4.45005432195217E-07,-66.9762191772461
4.50005493231119E-07,-67.1387329101563
4.5500555426702E-07,-67.2586364746094
4.60005615302921E-07,-67.3277893066406
4.65005676338822E-07,-67.3604278564453
4.70005737374724E-07,-67.365478515625
4.75005798410625E-07,-67.3467712402344
4.80005859446526E-07,-67.3081130981445
4.85005920482428E-07,-67.2533187866211
4.90005981518329E-07,-67.1862106323242
4.9500604255423E-07,-67.110595703125
5.00006103590132E-07,-67.0302963256836
5.05006164626033E-07,-66.9491271972656
5.10006225661934E-07,-66.8709030151367
5.15006286697836E-07,-66.799430847168
5.20006347733737E-07,-66.7385406494141
5.25006408769638E-07,-66.6920394897461
5.3000646980554E-07,-66.6372604370117
5.35006530841441E-07,-66.5546264648438
5.40006591877342E-07,-66.4525833129883
5.45006652913243E-07,-66.3395767211914
5.50006713949145E-07,-66.2240676879883
5.55006774985046E-07,-66.114501953125
5.60006836020948E-07,-66.0193252563477
5.65006897056849E-07,-65.9469909667969
5.7000695809275E-07,-65.9059600830078
5.75007019128651E-07,-65.904670715332
5.80007080164553E-07,-65.9515762329102
5.85007141200454E-07,-66.0551223754883
5.90007202236355E-07,-66.2237701416016
5.95007263272257E-07,-66.4805297851563
6.00007324308158E-07,-66.8657760620117
6.05007385344059E-07,-67.3589019775391
6.10007446379961E-07,-67.9350357055664
6.15007507415862E-07,-68.5693206787109
6.20007568451763E-07,-69.2368774414063
6.25007629487665E-07,-69.9128570556641
6.30007690523566E-07,-70.572380065918
6.35007751559467E-07,-71.1905899047852
6.40007812595369E-07,-71.7426147460938
6.4500787363127E-07,-72.2035903930664
6.50007934667171E-07,-72.5486526489258
6.55007995703072E-07,-72.7529373168945
6.60008056738974E-07,-72.7928085327148
6.65008117774875E-07,-72.6731491088867
6.70008178810776E-07,-72.4164962768555
6.75008239846678E-07,-72.0438385009766
6.80008300882579E-07,-71.5761642456055
6.8500836191848E-07,-71.0344390869141
6.90008422954382E-07,-70.4396667480469
6.95008483990283E-07,-69.8128128051758
7.00008545026184E-07,-69.1748733520508
7.05008606062086E-07,-68.5468139648438
7.10008667097987E-07,-67.9496307373047
7.15008728133888E-07,-67.4043045043945
7.2000878916979E-07,-66.9318161010742
7.25008850205691E-07,-66.5531387329102
7.30008911241592E-07,-66.2382888793945
7.35008972277494E-07,-65.9435577392578
7.40009033313395E-07,-65.6693496704102
7.45009094349296E-07,-65.4160919189453
7.50009155385198E-07,-65.1841888427734
7.55009216421099E-07,-64.9740753173828
7.60009277457E-07,-64.7861480712891
7.65009338492901E-07,-64.6208267211914
7.70009399528803E-07,-64.4785308837891
7.75009460564704E-07,-64.3596801757813
7.80009521600605E-07,-64.2646865844727
7.85009582636507E-07,-64.193962097168
7.90009643672408E-07,-64.1479263305664
7.95009704708309E-07,-64.1332550048828
8.00009765744211E-07,-64.167236328125
8.05009826780112E-07,-64.2444305419922
8.10009887816013E-07,-64.3577117919922
8.15009948851915E-07,-64.4999313354492
8.20010009887816E-07,-64.6639633178711
8.25010070923717E-07,-64.8426666259766
8.30010131959619E-07,-65.0289077758789
8.3501019299552E-07,-65.2155456542969
8.40010254031421E-07,-65.3954467773438
8.45010315067323E-07,-65.5614852905273
8.50010376103224E-07,-65.7065048217773
8.55010437139125E-07,-65.8233871459961
8.60010498175026E-07,-65.9063415527344
8.65010559210928E-07,-65.9686050415039
8.70010620246829E-07,-66.0167922973633
8.7501068128273E-07,-66.0527572631836
8.80010742318632E-07,-66.0783462524414
8.85010803354533E-07,-66.0954132080078
8.90010864390434E-07,-66.1057968139648
8.95010925426336E-07,-66.1113433837891
9.00010986462237E-07,-66.1139144897461
9.05011047498138E-07,-66.1153564453125
9.1001110853404E-07,-66.1175003051758
9.15011169569941E-07,-66.1222152709961
9.20011230605842E-07,-66.1313400268555
9.25011291641744E-07,-66.1467208862305
9.30011352677645E-07,-66.135139465332
9.35011413713546E-07,-66.0720901489258
9.40011474749448E-07,-65.9724807739258
9.45011535785349E-07,-65.8512191772461
9.5001159682125E-07,-65.7232284545898
9.55011657857151E-07,-65.6034088134766
9.60011718893053E-07,-65.5066833496094
9.65011779928954E-07,-65.4479522705078
9.70011840964855E-07,-65.442138671875
9.75011902000757E-07,-65.5041580200195
9.80011963036658E-07,-65.6489105224609
9.85012024072559E-07,-65.8913116455078
9.90012085108461E-07,-66.2462768554688
9.95012146144362E-07,-66.7546844482422
1.00001220718026E-06,-67.4885025024414
1.00501226821616E-06,-68.4111480712891
1.01001232925207E-06,-69.4784698486328
1.01501239028797E-06,-70.6463088989258
1.02001245132387E-06,-71.8704986572266
1.02501251235977E-06,-73.1068878173828
1.03001257339567E-06,-74.3113174438477
1.03501263443157E-06,-75.4396286010742
1.04001269546747E-06,-76.4476547241211
1.04501275650338E-06,-77.2912368774414
1.05001281753928E-06,-77.9262237548828
1.05501287857518E-06,-78.3084564208984
1.06001293961108E-06,-78.395637512207
1.06501300064698E-06,-78.1923980712891
1.07001306168288E-06,-77.7387313842773
1.07501312271878E-06,-77.0733261108398
1.08001318375468E-06,-76.2348480224609
1.08501324479059E-06,-75.2619857788086
1.09001330582649E-06,-74.1934051513672
1.09501336686239E-06,-73.0677871704102
1.10001342789829E-06,-71.9238128662109
1.10501348893419E-06,-70.8001480102539
1.11001354997009E-06,-69.735481262207
1.11501361100599E-06,-68.7684783935547
1.1200136720419E-06,-67.9378280639648
1.1250137330778E-06,-67.2821960449219
1.1300137941137E-06,-66.7551193237305
1.1350138551496E-06,-66.2819976806641
1.1400139161855E-06,-65.8593063354492
1.1450139772214E-06,-65.4835052490234
1.1500140382573E-06,-65.1510772705078
1.1550140992932E-06,-64.8584899902344
1.16001416032911E-06,-64.6022262573242
1.16501422136501E-06,-64.3787460327148
1.17001428240091E-06,-64.1845321655273
1.17501434343681E-06,-64.0160446166992
1.18001440447271E-06,-63.8697738647461
1.18501446550861E-06,-63.7421798706055
1.19001452654451E-06,-63.6297416687012
1.19501458758041E-06,-63.5395584106445
1.20001464861632E-06,-63.5008392333984
1.20501470965222E-06,-63.5088806152344
1.21001477068812E-06,-63.5562591552734
1.21501483172402E-06,-63.6355400085449
1.22001489275992E-06,-63.7392997741699
1.22501495379582E-06,-63.8601036071777
1.23001501483172E-06,-63.9905281066895
1.23501507586763E-06,-64.1231384277344
1.24001513690353E-06,-64.2505111694336
1.24501519793943E-06,-64.3652114868164
1.25001525897533E-06,-64.4598159790039
1.25501532001123E-06,-64.5268859863281
1.26001538104713E-06,-64.560302734375
1.26501544208303E-06,-64.5723724365234
1.27001550311893E-06,-64.5699768066406
1.27501556415484E-06,-64.5555572509766
1.28001562519074E-06,-64.5315475463867
1.28501568622664E-06,-64.5003662109375
1.29001574726254E-06,-64.4644622802734
1.29501580829844E-06,-64.4262619018555
1.30001586933434E-06,-64.3881988525391
1.30501593037024E-06,-64.3527069091797
1.31001599140614E-06,-64.3222274780273
1.31501605244205E-06,-64.2991790771484
1.32001611347795E-06,-64.2859954833984
1.32501617451385E-06,-64.2851257324219
1.33001623554975E-06,-64.2660064697266
1.33501629658565E-06,-64.2052917480469
1.34001635762155E-06,-64.1161804199219
1.34501641865745E-06,-64.0119094848633
1.35001647969336E-06,-63.9056777954102
1.35501654072926E-06,-63.810718536377
1.36001660176516E-06,-63.7402420043945
1.36501666280106E-06,-63.7074661254883
1.37001672383696E-06,-63.7256088256836
1.37501678487286E-06,-63.8078880310059
1.38001684590876E-06,-63.9675216674805
1.38501690694466E-06,-64.2177276611328
1.39001696798057E-06,-64.5717163085938
1.39501702901647E-06,-65.0679244995117
1.40001709005237E-06,-65.7761611938477
1.40501715108827E-06,-66.6622695922852
1.41001721212417E-06,-67.6847763061523
1.41501727316007E-06,-68.8022079467773
1.42001733419597E-06,-69.9730911254883
1.42501739523188E-06,-71.1559524536133
1.43001745626778E-06,-72.3093185424805
1.43501751730368E-06,-73.391716003418
1.44001757833958E-06,-74.3616714477539
1.44501763937548E-06,-75.1777038574219
1.45001770041138E-06,-75.7983474731445
1.45501776144728E-06,-76.1821212768555
1.46001782248318E-06,-76.2893447875977
1.46501788351909E-06,-76.1247406005859
1.47001794455499E-06,-75.7258834838867
1.47501800559089E-06,-75.1289596557617
1.48001806662679E-06,-74.3701629638672
1.48501812766269E-06,-73.4856872558594
1.49001818869859E-06,-72.51171875
1.49501824973449E-06,-71.4844512939453
1.5000183107704E-06,-70.4400787353516
1.5050183718063E-06,-69.4147872924805
1.5100184328422E-06,-68.4447708129883
1.5150184938781E-06,-67.5662231445313
1.520018554914E-06,-66.8153381347656
1.5250186159499E-06,-66.2283020019531
1.5300186769858E-06,-65.7660293579102
1.5350187380217E-06,-65.3616943359375
1.54001879905761E-06,-65.0098571777344
1.54501886009351E-06,-64.7050704956055
1.55001892112941E-06,-64.44189453125
1.55501898216531E-06,-64.2148895263672
1.56001904320121E-06,-64.0186004638672
1.56501910423711E-06,-63.847599029541
1.57001916527301E-06,-63.6964340209961
1.57501922630891E-06,-63.5596694946289
1.58001928734482E-06,-63.4318580627441
1.58501934838072E-06,-63.307559967041
1.59001940941662E-06,-63.1813354492188
1.59501947045252E-06,-63.0627059936523
1.60001953148842E-06,-62.9927940368652
1.60501959252432E-06,-62.9654922485352
1.61001965356022E-06,-62.9708595275879
1.61501971459613E-06,-62.9989547729492
1.62001977563203E-06,-63.0398483276367
1.62501983666793E-06,-63.0835952758789
1.63001989770383E-06,-63.1202621459961
1.63501995873973E-06,-63.1399116516113
1.64002001977563E-06,-63.1326026916504
1.64502008081153E-06,-63.0883979797363
1.65002014184743E-06,-62.9973602294922
1.65502020288334E-06,-62.849552154541
1.66002026391924E-06,-62.6362152099609
1.66502032495514E-06,-62.3673057556152
1.67002038599104E-06,-62.0519485473633
1.67502044702694E-06,-61.6956977844238
1.68002050806284E-06,-61.3041076660156
1.68502056909874E-06,-60.8827362060547
1.69002063013465E-06,-60.4371337890625
1.69502069117055E-06,-59.9728622436523
1.70002075220645E-06,-59.495475769043
1.70502081324235E-06,-59.0105323791504
1.71002087427825E-06,-58.5235824584961
1.71502093531415E-06,-58.0401840209961
1.72002099635005E-06,-57.5658912658691
1.72502105738595E-06,-57.1062660217285
1.73002111842186E-06,-56.6441192626953
1.73502117945776E-06,-56.1616325378418
1.74002124049366E-06,-55.6634140014648
1.74502130152956E-06,-55.1540718078613
1.75002136256546E-06,-54.6382064819336
1.75502142360136E-06,-54.1204261779785
1.76002148463726E-06,-53.605339050293
1.76502154567316E-06,-53.0975532531738
1.77002160670907E-06,-52.6016693115234
1.77502166774497E-06,-52.1222953796387
1.78002172878087E-06,-51.6640357971191
1.78502178981677E-06,-51.231502532959
1.79002185085267E-06,-50.8292961120605
1.79502191188857E-06,-50.455810546875
1.80002197292447E-06,-50.0940208435059
1.80502203396038E-06,-49.7439651489258
1.81002209499628E-06,-49.4071807861328
1.81502215603218E-06,-49.085205078125
1.82002221706808E-06,-48.7795639038086
1.82502227810398E-06,-48.4917984008789
1.83002233913988E-06,-48.223445892334
1.83502240017578E-06,-47.9760322570801
1.84002246121168E-06,-47.7510986328125
1.84502252224759E-06,-47.5501823425293
1.85002258328349E-06,-47.3748092651367
1.85502264431939E-06,-47.2265205383301
1.86002270535529E-06,-47.1060905456543
1.86502276639119E-06,-47.0051689147949
1.87002282742709E-06,-46.9222640991211
1.87502288846299E-06,-46.8589134216309
1.8800229494989E-06,-46.8166694641113
1.8850230105348E-06,-46.7970695495605
1.8900230715707E-06,-46.8016662597656
1.8950231326066E-06,-46.8320007324219
1.9000231936425E-06,-46.8896179199219
1.9050232546784E-06,-46.9760589599609
1.9100233157143E-06,-47.0928764343262
1.9150233767502E-06,-47.2416152954102
1.92002343778611E-06,-47.4238128662109
1.92502349882201E-06,-47.6410179138184
1.93002355985791E-06,-47.8787574768066
1.93502362089381E-06,-48.1255264282227
1.94002368192971E-06,-48.387321472168
1.94502374296561E-06,-48.6701393127441
1.95002380400151E-06,-48.9799766540527
1.95502386503741E-06,-49.3228302001953
1.96002392607332E-06,-49.704704284668
1.96502398710922E-06,-50.1315879821777
1.97002404814512E-06,-50.6094856262207
1.97502410918102E-06,-51.1443939208984
1.98002417021692E-06,-51.7423057556152
1.98502423125282E-06,-52.4092216491699
1.99002429228872E-06,-53.1511383056641
1.99502435332463E-06,-53.9942016601563
2.00002441436053E-06,-54.9940757751465
2.00502447539643E-06,-56.1283416748047
2.01002453643233E-06,-57.368896484375
2.01502459746823E-06,-58.6876487731934
2.02002465850413E-06,-60.0564994812012
2.02502471954003E-06,-61.4473533630371
2.03002478057593E-06,-62.8321113586426
2.03502484161184E-06,-64.1826782226563
2.04002490264774E-06,-65.4709625244141
2.04502496368364E-06,-66.6688690185547
2.05002502471954E-06,-67.748291015625
2.05502508575544E-06,-68.6811370849609
2.06002514679134E-06,-69.443244934082
2.06502520782724E-06,-70.0698623657227
2.07002526886315E-06,-70.5868682861328
2.07502532989905E-06,-71.0074615478516
2.08002539093495E-06,-71.344856262207
2.08502545197085E-06,-71.6122512817383
2.09002551300675E-06,-71.8228530883789
2.09502557404265E-06,-71.9898681640625
2.10002563507855E-06,-72.1265106201172
2.10502569611445E-06,-72.245979309082
2.11002575715036E-06,-72.3614883422852
2.11502581818626E-06,-72.4862289428711
2.12002587922216E-06,-72.6334228515625
2.12502594025806E-06,-72.8162689208984
2.13002600129396E-06,-73.0352096557617
2.13502606232986E-06,-73.2757797241211
2.14002612336576E-06,-73.5288467407227
2.14502618440166E-06,-73.785270690918
2.15002624543757E-06,-74.0359268188477
2.15502630647347E-06,-74.2716751098633
2.16002636750937E-06,-74.4833755493164
2.16502642854527E-06,-74.6618881225586
2.17002648958117E-06,-74.7980880737305
2.17502655061707E-06,-74.8828277587891
2.18002661165297E-06,-74.906982421875
2.18502667268888E-06,-74.8614120483398
2.19002673372478E-06,-74.7369766235352
2.19502679476068E-06,-74.5212478637695
2.20002685579658E-06,-74.2049102783203
2.20502691683248E-06,-73.8003234863281
2.21002697786838E-06,-73.3211059570313
2.21502703890428E-06,-72.7808685302734
2.22002709994018E-06,-72.1932067871094
2.22502716097609E-06,-71.5717468261719
2.23002722201199E-06,-70.9300918579102
2.23502728304789E-06,-70.2818450927734
2.24002734408379E-06,-69.6406326293945
2.24502740511969E-06,-69.0200500488281
2.25002746615559E-06,-68.4337158203125
2.25502752719149E-06,-67.8952331542969
2.2600275882274E-06,-67.4136734008789
2.2650276492633E-06,-66.9408493041992
2.2700277102992E-06,-66.4638137817383
2.2750277713351E-06,-65.9871597290039
2.280027832371E-06,-65.5154647827148
2.2850278934069E-06,-65.0533065795898
2.2900279544428E-06,-64.6052703857422
2.2950280154787E-06,-64.1759414672852
2.30002807651461E-06,-63.7699012756348
2.30502813755051E-06,-63.3917274475098
2.31002819858641E-06,-63.0460014343262
2.31502825962231E-06,-62.7373085021973
2.32002832065821E-06,-62.4702339172363
2.32502838169411E-06,-62.2493515014648
2.33002844273001E-06,-62.0537796020508
2.33502850376592E-06,-61.8642768859863
2.34002856480182E-06,-61.6879196166992
2.34502862583772E-06,-61.5317687988281
2.35002868687362E-06,-61.402889251709
2.35502874790952E-06,-61.308349609375
2.36002880894542E-06,-61.2552146911621
2.36502886998132E-06,-61.2505569458008
2.37002893101722E-06,-61.3014335632324
2.37502899205313E-06,-61.4149169921875
2.38002905308903E-06,-61.598072052002
2.38502911412493E-06,-61.857967376709
2.39002917516083E-06,-62.2016639709473
2.39502923619673E-06,-62.6613616943359
2.40002929723263E-06,-63.3065185546875
2.40502935826853E-06,-64.1095886230469
2.41002941930443E-06,-65.0359802246094
2.41502948034034E-06,-66.0510940551758
2.42002954137624E-06,-67.1203460693359
2.42502960241214E-06,-68.2091369628906
2.43002966344804E-06,-69.2828674316406
2.43502972448394E-06,-70.3069534301758
2.44002978551984E-06,-71.2467880249023
2.44502984655574E-06,-72.0677871704102
2.45002990759165E-06,-72.7353515625
2.45502996862755E-06,-73.2148895263672
2.46003002966345E-06,-73.4747467041016
2.46503009069935E-06,-73.5359268188477
2.47003015173525E-06,-73.4300079345703
