Trace
Swept SA
A.19.55,N9020B
508 AB2 B25 B40 B85 DP2 DP4 EP2 FS1 FS2 MPB RTL ,01
Segment,0
Number of Points,81920
Sweep Time,0.0004096
Start Frequency,2400000000
Stop Frequency,2400000000
Average Count,0
Average Type,LogPower(Video)
RBW,3000000
RBW Filter,Gaussian
RBW Filter BW,3dB
VBW,3000000
Sweep Type,Swept
X Axis Scale,Lin
PreAmp State,Off
PreAmp Band,Low
Trigger Source,Ext1
Trigger Level,1.2
Trigger Slope,Positive
Trigger Delay,1E-06
Phase Noise Optimization,Fast
Swept If Gain,Low
FFT If Gain,Autorange
RF Coupling,AC
FFT Width,411900
Ext Ref,10000000
Input,RF
RF Calibrator,Off
Attenuation,6
Ref Level Offset,0
External Gain,0
Trace Type,Clearwrite
Detector,Normal
Trace Math,Off
Trace Math Oper1,Trace5
Trace Math Oper2,Trace6
Trace Math Offset,0
Normalize,Off
Trace Name,Trace1
X Axis Units,s
Y Axis Units,dBm
DATA
0,-60.5487594604492
5.00006103590132E-09,-60.5527000427246
1.00001220718026E-08,-60.4963912963867
1.50001831077039E-08,-60.3939781188965
2.00002441436053E-08,-60.2596015930176
2.50003051795066E-08,-60.1073989868164
3.00003662154079E-08,-59.9515190124512
3.50004272513092E-08,-59.8060989379883
4.00004882872105E-08,-59.6852798461914
4.50005493231118E-08,-59.6032028198242
5.00006103590132E-08,-59.5740051269531
5.50006713949145E-08,-59.6118354797363
6.00007324308158E-08,-59.7292861938477
6.50007934667171E-08,-59.9137229919434
7.00008545026184E-08,-60.1521911621094
7.50009155385197E-08,-60.4362373352051
8.00009765744211E-08,-60.7574195861816
8.50010376103224E-08,-61.1072807312012
9.00010986462237E-08,-61.4773750305176
9.5001159682125E-08,-61.8592567443848
1.00001220718026E-07,-62.2444686889648
1.05001281753928E-07,-62.6245613098145
1.10001342789829E-07,-62.9910926818848
1.1500140382573E-07,-63.3356094360352
1.20001464861632E-07,-63.6496620178223
1.25001525897533E-07,-63.9247970581055
1.30001586933434E-07,-64.1793670654297
1.35001647969336E-07,-64.4351959228516
1.40001709005237E-07,-64.6890716552734
1.45001770041138E-07,-64.9377822875977
1.50001831077039E-07,-65.1781158447266
1.55001892112941E-07,-65.4068450927734
1.60001953148842E-07,-65.6207656860352
1.65002014184743E-07,-65.8166656494141
1.70002075220645E-07,-65.991325378418
1.75002136256546E-07,-66.1415252685547
1.80002197292447E-07,-66.2640609741211
1.85002258328349E-07,-66.355712890625
1.9000231936425E-07,-66.4132690429688
1.95002380400151E-07,-66.4162139892578
2.00002441436053E-07,-66.3167877197266
2.05002502471954E-07,-66.1322021484375
2.10002563507855E-07,-65.8844299316406
2.15002624543757E-07,-65.595458984375
2.20002685579658E-07,-65.2872772216797
2.25002746615559E-07,-64.9818649291992
2.30002807651461E-07,-64.7012176513672
2.35002868687362E-07,-64.4673233032227
2.40002929723263E-07,-64.3021545410156
2.45002990759165E-07,-64.2277069091797
2.50003051795066E-07,-64.2659606933594
2.55003112830967E-07,-64.4389114379883
2.60003173866868E-07,-64.7735748291016
2.6500323490277E-07,-65.3378753662109
2.70003295938671E-07,-66.1128234863281
2.75003356974572E-07,-67.0543670654297
2.80003418010474E-07,-68.1184768676758
2.85003479046375E-07,-69.2610931396484
2.90003540082276E-07,-70.4381713867188
2.95003601118178E-07,-71.6056823730469
3.00003662154079E-07,-72.7195739746094
3.0500372318998E-07,-73.7358016967773
3.10003784225882E-07,-74.6103286743164
3.15003845261783E-07,-75.2990951538086
3.20003906297684E-07,-75.7580718994141
3.25003967333586E-07,-75.9432144165039
3.30004028369487E-07,-75.8438186645508
3.35004089405388E-07,-75.5018615722656
3.4000415044129E-07,-74.9523086547852
3.45004211477191E-07,-74.2301254272461
3.50004272513092E-07,-73.3702621459961
3.55004333548993E-07,-72.4076995849609
3.60004394584895E-07,-71.3773880004883
3.65004455620796E-07,-70.3143005371094
3.70004516656697E-07,-69.2533950805664
3.75004577692599E-07,-68.2296371459961
3.800046387285E-07,-67.2779922485352
3.85004699764401E-07,-66.4334182739258
3.90004760800303E-07,-65.7308807373047
3.95004821836204E-07,-65.1645584106445
4.00004882872105E-07,-64.6228790283203
4.05004943908007E-07,-64.1010513305664
4.10005004943908E-07,-63.603889465332
4.15005065979809E-07,-63.1362342834473
4.20005127015711E-07,-62.7029151916504
4.25005188051612E-07,-62.308765411377
4.30005249087513E-07,-61.958610534668
4.35005310123415E-07,-61.6572875976563
4.40005371159316E-07,-61.4096260070801
4.45005432195217E-07,-61.2204551696777
4.50005493231119E-07,-61.0946083068848
4.5500555426702E-07,-61.0369148254395
4.60005615302921E-07,-61.0565223693848
4.65005676338822E-07,-61.2060737609863
4.70005737374724E-07,-61.4818954467773
4.75005798410625E-07,-61.8609886169434
4.80005859446526E-07,-62.3203620910645
4.85005920482428E-07,-62.837028503418
4.90005981518329E-07,-63.3879890441895
4.9500604255423E-07,-63.9502563476563
5.00006103590132E-07,-64.5008316040039
5.05006164626033E-07,-65.016731262207
5.10006225661934E-07,-65.4749526977539
5.15006286697836E-07,-65.8525085449219
5.20006347733737E-07,-66.1264038085938
5.25006408769638E-07,-66.2736587524414
5.3000646980554E-07,-66.3050308227539
5.35006530841441E-07,-66.2535018920898
5.40006591877342E-07,-66.1293563842773
5.45006652913243E-07,-65.9428939819336
5.50006713949145E-07,-65.7044067382813
5.55006774985046E-07,-65.4241714477539
5.60006836020948E-07,-65.1125030517578
5.65006897056849E-07,-64.7796783447266
5.7000695809275E-07,-64.4359893798828
5.75007019128651E-07,-64.0917358398438
5.80007080164553E-07,-63.757209777832
5.85007141200454E-07,-63.4426956176758
5.90007202236355E-07,-63.1584930419922
5.95007263272257E-07,-62.8980102539063
6.00007324308158E-07,-62.6149787902832
6.05007385344059E-07,-62.3118667602539
6.10007446379961E-07,-61.9952812194824
6.15007507415862E-07,-61.6718406677246
6.20007568451763E-07,-61.3481597900391
6.25007629487665E-07,-61.0308494567871
6.30007690523566E-07,-60.7265243530273
6.35007751559467E-07,-60.4418029785156
6.40007812595369E-07,-60.1833000183105
6.4500787363127E-07,-59.9576225280762
6.50007934667171E-07,-59.7713928222656
6.55007995703072E-07,-59.631217956543
6.60008056738974E-07,-59.5436935424805
6.65008117774875E-07,-59.511116027832
6.70008178810776E-07,-59.5275268554688
6.75008239846678E-07,-59.5860824584961
6.80008300882579E-07,-59.6799354553223
6.8500836191848E-07,-59.8022346496582
6.90008422954382E-07,-59.9461288452148
6.95008483990283E-07,-60.1047744750977
7.00008545026184E-07,-60.2713203430176
7.05008606062086E-07,-60.4389190673828
7.10008667097987E-07,-60.6007194519043
7.15008728133888E-07,-60.749870300293
7.2000878916979E-07,-60.8795318603516
7.25008850205691E-07,-60.9828491210938
7.30008911241592E-07,-61.0746459960938
7.35008972277494E-07,-61.1725959777832
7.40009033313395E-07,-61.2741088867188
7.45009094349296E-07,-61.3766021728516
7.50009155385198E-07,-61.4774932861328
7.55009216421099E-07,-61.5741958618164
7.60009277457E-07,-61.664119720459
7.65009338492901E-07,-61.7446899414063
7.70009399528803E-07,-61.8133125305176
7.75009460564704E-07,-61.8674087524414
7.80009521600605E-07,-61.9043884277344
7.85009582636507E-07,-61.9216690063477
7.90009643672408E-07,-61.9166679382324
7.95009704708309E-07,-61.8809394836426
8.00009765744211E-07,-61.7982711791992
8.05009826780112E-07,-61.676082611084
8.10009887816013E-07,-61.5234718322754
8.15009948851915E-07,-61.3495407104492
8.20010009887816E-07,-61.1633911132813
8.25010070923717E-07,-60.97412109375
8.30010131959619E-07,-60.7908325195313
8.3501019299552E-07,-60.622631072998
8.40010254031421E-07,-60.4786071777344
8.45010315067323E-07,-60.3678703308105
8.50010376103224E-07,-60.2995185852051
8.55010437139125E-07,-60.2826499938965
8.60010498175026E-07,-60.3258018493652
8.65010559210928E-07,-60.4258689880371
8.70010620246829E-07,-60.5745887756348
8.7501068128273E-07,-60.7647399902344
8.80010742318632E-07,-60.9891090393066
8.85010803354533E-07,-61.2404861450195
8.90010864390434E-07,-61.5116577148438
8.95010925426336E-07,-61.79541015625
9.00010986462237E-07,-62.084529876709
9.05011047498138E-07,-62.3718032836914
9.1001110853404E-07,-62.650016784668
9.15011169569941E-07,-62.9119567871094
9.20011230605842E-07,-63.1504096984863
9.25011291641744E-07,-63.3581619262695
9.30011352677645E-07,-63.5574951171875
9.35011413713546E-07,-63.7715148925781
9.40011474749448E-07,-63.9942626953125
9.45011535785349E-07,-64.2197723388672
9.5001159682125E-07,-64.4420776367188
9.55011657857151E-07,-64.6552124023438
9.60011718893053E-07,-64.8532180786133
9.65011779928954E-07,-65.0301284790039
9.70011840964855E-07,-65.1799850463867
9.75011902000757E-07,-65.2968139648438
9.80011963036658E-07,-65.3746490478516
9.85012024072559E-07,-65.4075393676758
9.90012085108461E-07,-65.3895111083984
9.95012146144362E-07,-65.3087768554688
1.00001220718026E-06,-65.1491470336914
1.00501226821616E-06,-64.9216156005859
1.01001232925207E-06,-64.6389694213867
1.01501239028797E-06,-64.3140106201172
1.02001245132387E-06,-63.9595336914063
1.02501251235977E-06,-63.5883369445801
1.03001257339567E-06,-63.2132110595703
1.03501263443157E-06,-62.8469619750977
1.04001269546747E-06,-62.5023765563965
1.04501275650338E-06,-62.192253112793
1.05001281753928E-06,-61.9293899536133
1.05501287857518E-06,-61.7265853881836
1.06001293961108E-06,-61.594841003418
1.06501300064698E-06,-61.5181655883789
1.07001306168288E-06,-61.4847717285156
1.07501312271878E-06,-61.4886283874512
1.08001318375468E-06,-61.5236968994141
1.08501324479059E-06,-61.5839500427246
1.09001330582649E-06,-61.6633491516113
1.09501336686239E-06,-61.755859375
1.10001342789829E-06,-61.8554496765137
1.10501348893419E-06,-61.9560890197754
1.11001354997009E-06,-62.0517349243164
1.11501361100599E-06,-62.136360168457
1.1200136720419E-06,-62.203929901123
1.1250137330778E-06,-62.2484092712402
1.1300137941137E-06,-62.2820510864258
1.1350138551496E-06,-62.3198699951172
1.1400139161855E-06,-62.3599891662598
1.1450139772214E-06,-62.4005241394043
1.1500140382573E-06,-62.4395866394043
1.1550140992932E-06,-62.4752960205078
1.16001416032911E-06,-62.5057716369629
1.16501422136501E-06,-62.529125213623
1.17001428240091E-06,-62.5434761047363
1.17501434343681E-06,-62.5469360351563
1.18001440447271E-06,-62.5376281738281
1.18501446550861E-06,-62.5136642456055
1.19001452654451E-06,-62.4731636047363
1.19501458758041E-06,-62.4076461791992
1.20001464861632E-06,-62.298900604248
1.20501470965222E-06,-62.1541786193848
1.21001477068812E-06,-61.9825859069824
1.21501483172402E-06,-61.7932357788086
1.22001489275992E-06,-61.5952262878418
1.22501495379582E-06,-61.3976745605469
1.23001501483172E-06,-61.2096786499023
1.23501507586763E-06,-61.0403518676758
1.24001513690353E-06,-60.8987998962402
1.24501519793943E-06,-60.7941284179688
1.25001525897533E-06,-60.7354431152344
1.25501532001123E-06,-60.7318572998047
1.26001538104713E-06,-60.792911529541
1.26501544208303E-06,-60.9273490905762
1.27001550311893E-06,-61.1270523071289
1.27501556415484E-06,-61.380615234375
1.28001562519074E-06,-61.676643371582
1.28501568622664E-06,-62.003734588623
1.29001574726254E-06,-62.3504905700684
1.29501580829844E-06,-62.7055130004883
1.30001586933434E-06,-63.0574035644531
1.30501593037024E-06,-63.3947639465332
1.31001599140614E-06,-63.7061920166016
1.31501605244205E-06,-63.9802932739258
1.32001611347795E-06,-64.2056655883789
1.32501617451385E-06,-64.3709030151367
1.33001623554975E-06,-64.4918441772461
1.33501629658565E-06,-64.5918960571289
1.34001635762155E-06,-64.6710662841797
1.34501641865745E-06,-64.7293701171875
1.35001647969336E-06,-64.7667999267578
1.35501654072926E-06,-64.7833786010742
1.36001660176516E-06,-64.7790908813477
1.36501666280106E-06,-64.7539596557617
1.37001672383696E-06,-64.7079849243164
1.37501678487286E-06,-64.6411666870117
1.38001684590876E-06,-64.5535202026367
1.38501690694466E-06,-64.4450378417969
1.39001696798057E-06,-64.3157424926758
1.39501702901647E-06,-64.1582717895508
1.40001709005237E-06,-63.9523506164551
1.40501715108827E-06,-63.7038345336914
1.41001721212417E-06,-63.4205551147461
1.41501727316007E-06,-63.1103439331055
1.42001733419597E-06,-62.7810325622559
1.42501739523188E-06,-62.4404563903809
1.43001745626778E-06,-62.0964469909668
1.43501751730368E-06,-61.7568359375
1.44001757833958E-06,-61.4294586181641
1.44501763937548E-06,-61.1221466064453
1.45001770041138E-06,-60.8427314758301
1.45501776144728E-06,-60.5990447998047
1.46001782248318E-06,-60.3989601135254
1.46501788351909E-06,-60.2459297180176
1.47001794455499E-06,-60.1329231262207
1.47501800559089E-06,-60.0515632629395
1.48001806662679E-06,-59.9934768676758
1.48501812766269E-06,-59.9502983093262
1.49001818869859E-06,-59.913646697998
1.49501824973449E-06,-59.8751564025879
1.5000183107704E-06,-59.8264503479004
1.5050183718063E-06,-59.7591590881348
1.5100184328422E-06,-59.664909362793
1.5150184938781E-06,-59.535327911377
1.520018554914E-06,-59.3620452880859
1.5250186159499E-06,-59.1366882324219
1.5300186769858E-06,-58.8644676208496
1.5350187380217E-06,-58.5582618713379
1.54001879905761E-06,-58.2211875915527
1.54501886009351E-06,-57.856372833252
1.55001892112941E-06,-57.4669303894043
1.55501898216531E-06,-57.0559844970703
1.56001904320121E-06,-56.6266555786133
1.56501910423711E-06,-56.1820678710938
1.57001916527301E-06,-55.7253341674805
1.57501922630891E-06,-55.2595825195313
1.58001928734482E-06,-54.7879295349121
1.58501934838072E-06,-54.3134956359863
1.59001940941662E-06,-53.8394050598145
1.59501947045252E-06,-53.3608207702637
1.60001953148842E-06,-52.855899810791
1.60501959252432E-06,-52.3276481628418
1.61001965356022E-06,-51.7810897827148
1.61501971459613E-06,-51.2212524414063
1.62001977563203E-06,-50.6531677246094
1.62501983666793E-06,-50.0818557739258
1.63001989770383E-06,-49.5123519897461
1.63501995873973E-06,-48.9496765136719
1.64002001977563E-06,-48.3988647460938
1.64502008081153E-06,-47.8649368286133
1.65002014184743E-06,-47.3529243469238
1.65502020288334E-06,-46.8678550720215
1.66002026391924E-06,-46.4130744934082
1.66502032495514E-06,-45.9708251953125
1.67002038599104E-06,-45.536319732666
1.67502044702694E-06,-45.1112442016602
1.68002050806284E-06,-44.6972770690918
1.68502056909874E-06,-44.2961044311523
1.69002063013465E-06,-43.9093971252441
1.69502069117055E-06,-43.5388412475586
1.70002075220645E-06,-43.1861228942871
1.70502081324235E-06,-42.852912902832
1.71002087427825E-06,-42.5408973693848
1.71502093531415E-06,-42.2517585754395
1.72002099635005E-06,-41.9871711730957
1.72502105738595E-06,-41.7488250732422
1.73002111842186E-06,-41.5329627990723
1.73502117945776E-06,-41.3351783752441
1.74002124049366E-06,-41.1561546325684
1.74502130152956E-06,-40.9965858459473
1.75002136256546E-06,-40.8571586608887
1.75502142360136E-06,-40.7385597229004
1.76002148463726E-06,-40.6414794921875
1.76502154567316E-06,-40.5666046142578
1.77002160670907E-06,-40.5146255493164
1.77502166774497E-06,-40.4862251281738
1.78002172878087E-06,-40.4820976257324
1.78502178981677E-06,-40.5029296875
1.79002185085267E-06,-40.5494079589844
1.79502191188857E-06,-40.6212882995605
1.80002197292447E-06,-40.716007232666
1.80502203396038E-06,-40.8335762023926
1.81002209499628E-06,-40.9742279052734
1.81502215603218E-06,-41.1382064819336
1.82002221706808E-06,-41.325740814209
1.82502227810398E-06,-41.5370712280273
1.83002233913988E-06,-41.7724304199219
1.83502240017578E-06,-42.0320587158203
1.84002246121168E-06,-42.3161926269531
1.84502252224759E-06,-42.6250610351563
1.85002258328349E-06,-42.958911895752
1.85502264431939E-06,-43.3179702758789
1.86002270535529E-06,-43.7039108276367
1.86502276639119E-06,-44.133674621582
1.87002282742709E-06,-44.6072692871094
1.87502288846299E-06,-45.1185035705566
1.8800229494989E-06,-45.6611747741699
1.8850230105348E-06,-46.2290916442871
1.8900230715707E-06,-46.8160552978516
1.8950231326066E-06,-47.4158744812012
1.9000231936425E-06,-48.0223503112793
1.9050232546784E-06,-48.6292877197266
1.9100233157143E-06,-49.2304916381836
1.9150233767502E-06,-49.8197631835938
1.92002343778611E-06,-50.3909111022949
1.92502349882201E-06,-50.9377365112305
1.93002355985791E-06,-51.4823760986328
1.93502362089381E-06,-52.0467071533203
1.94002368192971E-06,-52.624153137207
1.94502374296561E-06,-53.208122253418
1.95002380400151E-06,-53.7920417785645
1.95502386503741E-06,-54.3693199157715
1.96002392607332E-06,-54.9333763122559
1.96502398710922E-06,-55.4776306152344
1.97002404814512E-06,-55.9955024719238
1.97502410918102E-06,-56.4804039001465
1.98002417021692E-06,-56.9257507324219
1.98502423125282E-06,-57.3249702453613
1.99002429228872E-06,-57.6714668273926
1.99502435332463E-06,-57.9520721435547
2.00002441436053E-06,-58.1484336853027
2.00502447539643E-06,-58.2728271484375
2.01002453643233E-06,-58.3395462036133
2.01502459746823E-06,-58.362907409668
2.02002465850413E-06,-58.3572082519531
2.02502471954003E-06,-58.3367538452148
2.03002478057593E-06,-58.3158531188965
2.03502484161184E-06,-58.3088073730469
2.04002490264774E-06,-58.3299255371094
2.04502496368364E-06,-58.3935089111328
2.05002502471954E-06,-58.5138626098633
2.05502508575544E-06,-58.7052879333496
2.06002514679134E-06,-58.9834785461426
2.06502520782724E-06,-59.3702697753906
2.07002526886315E-06,-59.8530120849609
2.07502532989905E-06,-60.4109344482422
2.08002539093495E-06,-61.0232734680176
2.08502545197085E-06,-61.669261932373
2.09002551300675E-06,-62.3281288146973
2.09502557404265E-06,-62.9791069030762
2.10002563507855E-06,-63.6014289855957
2.10502569611445E-06,-64.1743316650391
2.11002575715036E-06,-64.6770401000977
2.11502581818626E-06,-65.0887985229492
2.12002587922216E-06,-65.3888244628906
2.12502594025806E-06,-65.5563583374023
2.13002600129396E-06,-65.5916595458984
2.13502606232986E-06,-65.5180969238281
2.14002612336576E-06,-65.3495788574219
2.14502618440166E-06,-65.1000137329102
2.15002624543757E-06,-64.7833099365234
2.15502630647347E-06,-64.4133758544922
2.16002636750937E-06,-64.0041046142578
2.16502642854527E-06,-63.5694198608398
2.17002648958117E-06,-63.123218536377
2.17502655061707E-06,-62.6794090270996
2.18002661165297E-06,-62.2518997192383
2.18502667268888E-06,-61.8545951843262
2.19002673372478E-06,-61.501407623291
2.19502679476068E-06,-61.1839942932129
2.20002685579658E-06,-60.8414001464844
2.20502691683248E-06,-60.476505279541
2.21002697786838E-06,-60.0976409912109
2.21502703890428E-06,-59.7131423950195
2.22002709994018E-06,-59.3313446044922
2.22502716097609E-06,-58.960578918457
2.23002722201199E-06,-58.6091804504395
2.23502728304789E-06,-58.2854843139648
2.24002734408379E-06,-57.9978256225586
2.24502740511969E-06,-57.7545356750488
2.25002746615559E-06,-57.5639533996582
2.25502752719149E-06,-57.4344062805176
2.2600275882274E-06,-57.3730697631836
2.2650276492633E-06,-57.3695106506348
2.2700277102992E-06,-57.4160537719727
2.2750277713351E-06,-57.5087738037109
2.280027832371E-06,-57.6437454223633
2.2850278934069E-06,-57.8170394897461
2.2900279544428E-06,-58.0247344970703
2.2950280154787E-06,-58.2629013061523
2.30002807651461E-06,-58.5276145935059
2.30502813755051E-06,-58.8149452209473
2.31002819858641E-06,-59.1209716796875
2.31502825962231E-06,-59.441764831543
2.32002832065821E-06,-59.7733993530273
2.32502838169411E-06,-60.1119499206543
2.33002844273001E-06,-60.5021286010742
2.33502850376592E-06,-60.9785385131836
2.34002856480182E-06,-61.5220756530762
2.34502862583772E-06,-62.1136436462402
2.35002868687362E-06,-62.7341423034668
2.35502874790952E-06,-63.3644638061523
2.36002880894542E-06,-63.9855117797852
2.36502886998132E-06,-64.5781860351563
2.37002893101722E-06,-65.1233825683594
2.37502899205313E-06,-65.6020126342773
2.38002905308903E-06,-65.9949569702148
2.38502911412493E-06,-66.2831268310547
2.39002917516083E-06,-66.4474182128906
2.39502923619673E-06,-66.4669952392578
2.40002929723263E-06,-66.3365631103516
2.40502935826853E-06,-66.0778884887695
2.41002941930443E-06,-65.7139282226563
2.41502948034034E-06,-65.2676467895508
2.42002954137624E-06,-64.7620239257813
2.42502960241214E-06,-64.2200164794922
2.43002966344804E-06,-63.6645851135254
2.43502972448394E-06,-63.118709564209
2.44002978551984E-06,-62.6053466796875
2.44502984655574E-06,-62.1474685668945
2.45002990759165E-06,-61.7680397033691
2.45502996862755E-06,-61.4900245666504
2.46003002966345E-06,-61.3324165344238
2.46503009069935E-06,-61.2574729919434
2.47003015173525E-06,-61.2439231872559
