Trace
Swept SA
A.19.55,N9020B
508 AB2 B25 B40 B85 DP2 DP4 EP2 FS1 FS2 MPB RTL ,01
Segment,0
Number of Points,81920
Sweep Time,0.000452266667
Start Frequency,2400000000
Stop Frequency,2400000000
Average Count,0
Average Type,LogPower(Video)
RBW,3000000
RBW Filter,Gaussian
RBW Filter BW,3dB
VBW,3000000
Sweep Type,Swept
X Axis Scale,Lin
PreAmp State,Off
PreAmp Band,Low
Trigger Source,Ext1
Trigger Level,1.2
Trigger Slope,Positive
Trigger Delay,1E-06
Phase Noise Optimization,Fast
Swept If Gain,Low
FFT If Gain,Autorange
RF Coupling,AC
FFT Width,411900
Ext Ref,10000000
Input,RF
RF Calibrator,Off
Attenuation,6
Ref Level Offset,0
External Gain,0
Trace Type,Clearwrite
Detector,Normal
Trace Math,Off
Trace Math Oper1,Trace5
Trace Math Oper2,Trace6
Trace Math Offset,0
Normalize,Off
Trace Name,Trace1
X Axis Units,s
Y Axis Units,dBm
DATA
0,-89.0782699584961
5.5209007312101E-09,-89.3440475463867
1.10418014624202E-08,-89.5818252563477
1.65627021936303E-08,-89.7893981933594
2.20836029248404E-08,-89.9645614624023
2.76045036560505E-08,-90.1050872802734
3.31254043872606E-08,-90.2087707519531
3.86463051184707E-08,-90.2733993530273
4.41672058496808E-08,-90.2967681884766
4.96881065808909E-08,-90.2766494750977
5.5209007312101E-08,-90.2108383178711
6.07299080433111E-08,-90.087158203125
6.62508087745212E-08,-89.892936706543
7.17717095057313E-08,-89.6377563476563
7.72926102369414E-08,-89.3315582275391
8.28135109681515E-08,-88.9842681884766
8.83344116993616E-08,-88.6058349609375
9.38553124305717E-08,-88.2061996459961
9.93762131617818E-08,-87.795295715332
1.04897113892992E-07,-87.3830642700195
1.10418014624202E-07,-86.9794311523438
1.15938915355412E-07,-86.594352722168
1.21459816086622E-07,-86.2377624511719
1.26980716817832E-07,-85.8950958251953
1.32501617549042E-07,-85.5213088989258
1.38022518280252E-07,-85.1247100830078
1.43543419011463E-07,-84.7157287597656
1.49064319742673E-07,-84.304801940918
1.54585220473883E-07,-83.90234375
1.60106121205093E-07,-83.5187911987305
1.65627021936303E-07,-83.1645660400391
1.71147922667513E-07,-82.8500900268555
1.76668823398723E-07,-82.5857925415039
1.82189724129933E-07,-82.3821105957031
1.87710624861143E-07,-82.2494583129883
1.93231525592353E-07,-82.1930694580078
1.98752426323564E-07,-82.2002487182617
2.04273327054774E-07,-82.2642059326172
2.09794227785984E-07,-82.3788681030273
2.15315128517194E-07,-82.5381546020508
2.20836029248404E-07,-82.7359924316406
2.26356929979614E-07,-82.96630859375
2.31877830710824E-07,-83.223014831543
2.37398731442034E-07,-83.5000534057617
2.42919632173244E-07,-83.7913436889648
2.48440532904454E-07,-84.0908050537109
2.53961433635664E-07,-84.3923645019531
2.59482334366875E-07,-84.7098922729492
2.65003235098085E-07,-85.1067581176758
2.70524135829295E-07,-85.5703964233398
2.76045036560505E-07,-86.0805816650391
2.81565937291715E-07,-86.6170883178711
2.87086838022925E-07,-87.1597061157227
2.92607738754135E-07,-87.6881942749023
2.98128639485345E-07,-88.1823348999023
3.03649540216555E-07,-88.6219100952148
3.09170440947765E-07,-88.9866943359375
3.14691341678976E-07,-89.256462097168
3.20212242410186E-07,-89.4109878540039
3.25733143141396E-07,-89.4283065795898
3.31254043872606E-07,-89.2976379394531
3.36774944603816E-07,-89.0413970947266
3.42295845335026E-07,-88.6847457885742
3.47816746066236E-07,-88.2528457641602
3.53337646797446E-07,-87.7708587646484
3.58858547528656E-07,-87.2639617919922
3.64379448259866E-07,-86.7573013305664
3.69900348991077E-07,-86.2760543823242
3.75421249722287E-07,-85.8453750610352
3.80942150453497E-07,-85.4904327392578
3.86463051184707E-07,-85.2363815307617
3.91983951915917E-07,-85.101318359375
3.97504852647127E-07,-85.0497665405273
4.03025753378337E-07,-85.0637588500977
4.08546654109547E-07,-85.1325454711914
4.14067554840757E-07,-85.2453460693359
4.19588455571967E-07,-85.3914108276367
4.25109356303178E-07,-85.5599822998047
4.30630257034388E-07,-85.7402954101563
4.36151157765598E-07,-85.9215774536133
4.41672058496808E-07,-86.0930862426758
4.47192959228018E-07,-86.2440567016602
4.52713859959228E-07,-86.3637161254883
4.58234760690438E-07,-86.4450531005859
4.63755661421648E-07,-86.5157241821289
4.69276562152858E-07,-86.5830764770508
4.74797462884068E-07,-86.6463775634766
4.80318363615278E-07,-86.7048873901367
4.85839264346489E-07,-86.7578735351563
4.91360165077699E-07,-86.8046188354492
4.96881065808909E-07,-86.8443756103516
5.02401966540119E-07,-86.8764266967773
5.07922867271329E-07,-86.900032043457
5.13443768002539E-07,-86.9144668579102
5.18964668733749E-07,-86.9189910888672
5.24485569464959E-07,-86.9104461669922
5.30006470196169E-07,-86.8580703735352
5.3552737092738E-07,-86.7627563476563
5.4104827165859E-07,-86.6373519897461
5.465691723898E-07,-86.4947052001953
5.5209007312101E-07,-86.3476638793945
5.5761097385222E-07,-86.2090835571289
5.6313187458343E-07,-86.0918121337891
5.6865277531464E-07,-86.0086898803711
5.7417367604585E-07,-85.9725799560547
5.7969457677706E-07,-85.9963302612305
5.8521547750827E-07,-86.0927810668945
5.90736378239481E-07,-86.2749557495117
5.96257278970691E-07,-86.5523376464844
6.01778179701901E-07,-86.9143447875977
6.07299080433111E-07,-87.34619140625
6.12819981164321E-07,-87.8330993652344
6.18340881895531E-07,-88.3602828979492
6.23861782626741E-07,-88.9129638671875
6.29382683357951E-07,-89.4763565063477
6.34903584089161E-07,-90.0356826782227
6.40424484820371E-07,-90.5761642456055
6.45945385551581E-07,-91.0830154418945
6.51466286282792E-07,-91.5414505004883
6.56987187014002E-07,-91.9382705688477
6.62508087745212E-07,-92.3297271728516
6.68028988476422E-07,-92.7409286499023
6.73549889207632E-07,-93.1593780517578
6.79070789938842E-07,-93.5725631713867
6.84591690670052E-07,-93.9679641723633
6.90112591401262E-07,-94.3330841064453
6.95633492132472E-07,-94.655403137207
7.01154392863682E-07,-94.9224166870117
7.06675293594893E-07,-95.1216125488281
7.12196194326103E-07,-95.2404861450195
7.17717095057313E-07,-95.2665100097656
7.23237995788523E-07,-95.1871337890625
7.28758896519733E-07,-94.9881134033203
7.34279797250943E-07,-94.67626953125
7.39800697982153E-07,-94.2674560546875
7.45321598713363E-07,-93.7775497436523
7.50842499444573E-07,-93.2224197387695
7.56363400175783E-07,-92.6179275512695
7.61884300906994E-07,-91.9799499511719
7.67405201638204E-07,-91.3243560791016
7.72926102369414E-07,-90.6670150756836
7.78447003100624E-07,-90.0237808227539
7.83967903831834E-07,-89.4105377197266
7.89488804563044E-07,-88.843132019043
7.95009705294254E-07,-88.2830810546875
8.00530606025464E-07,-87.6915740966797
8.06051506756674E-07,-87.0782623291016
8.11572407487884E-07,-86.4527969360352
8.17093308219094E-07,-85.8248138427734
8.22614208950305E-07,-85.203971862793
8.28135109681515E-07,-84.5999145507813
8.33656010412725E-07,-84.0222930908203
8.39176911143935E-07,-83.4807510375977
8.44697811875145E-07,-82.9849395751953
8.50218712606355E-07,-82.5445022583008
8.55739613337565E-07,-82.1690902709961
8.61260514068775E-07,-81.8509521484375
8.66781414799985E-07,-81.5715560913086
8.72302315531195E-07,-81.3301010131836
8.77823216262406E-07,-81.1258316040039
8.83344116993616E-07,-80.9580154418945
8.88865017724826E-07,-80.8258972167969
8.94385918456036E-07,-80.7287292480469
8.99906819187246E-07,-80.6657638549805
9.05427719918456E-07,-80.6362686157227
9.10948620649666E-07,-80.6394805908203
9.16469521380876E-07,-80.6746597290039
9.21990422112086E-07,-80.7410659790039
9.27511322843296E-07,-80.8581314086914
9.33032223574507E-07,-81.0506286621094
9.38553124305717E-07,-81.3055877685547
9.44074025036927E-07,-81.6095275878906
9.49594925768137E-07,-81.948974609375
9.55115826499347E-07,-82.310432434082
9.60636727230557E-07,-82.6804351806641
9.66157627961767E-07,-83.0454940795898
9.71678528692977E-07,-83.3921356201172
9.77199429424187E-07,-83.7068634033203
9.82720330155397E-07,-83.9762191772461
9.88241230886608E-07,-84.1866989135742
9.93762131617818E-07,-84.3385848999023
9.99283032349028E-07,-84.4567031860352
1.00480393308024E-06,-84.5456008911133
1.01032483381145E-06,-84.6090087890625
1.01584573454266E-06,-84.6506729125977
1.02136663527387E-06,-84.6743240356445
1.02688753600508E-06,-84.6836853027344
1.03240843673629E-06,-84.682502746582
1.0379293374675E-06,-84.6744995117188
1.04345023819871E-06,-84.6634216308594
1.04897113892992E-06,-84.6529998779297
1.05449203966113E-06,-84.6469573974609
1.06001294039234E-06,-84.639274597168
1.06553384112355E-06,-84.6080169677734
1.07105474185476E-06,-84.5574493408203
1.07657564258597E-06,-84.493408203125
1.08209654331718E-06,-84.4217224121094
1.08761744404839E-06,-84.3482208251953
1.0931383447796E-06,-84.2787170410156
1.09865924551081E-06,-84.2190551757813
1.10418014624202E-06,-84.1750564575195
1.10970104697323E-06,-84.1525421142578
1.11522194770444E-06,-84.1573486328125
1.12074284843565E-06,-84.1953048706055
1.12626374916686E-06,-84.2605438232422
1.13178464989807E-06,-84.3186264038086
1.13730555062928E-06,-84.3742523193359
1.14282645136049E-06,-84.4358444213867
1.1483473520917E-06,-84.5118103027344
1.15386825282291E-06,-84.6105651855469
1.15938915355412E-06,-84.7405319213867
1.16491005428533E-06,-84.9101181030273
1.17043095501654E-06,-85.1277389526367
1.17595185574775E-06,-85.4018020629883
1.18147275647896E-06,-85.7407379150391
1.18699365721017E-06,-86.152946472168
1.19251455794138E-06,-86.6649475097656
1.19803545867259E-06,-87.3501129150391
1.2035563594038E-06,-88.1818771362305
1.20907726013501E-06,-89.1215515136719
1.21459816086622E-06,-90.1304626464844
1.22011906159743E-06,-91.1699295043945
1.22563996232864E-06,-92.2012634277344
1.23116086305985E-06,-93.185791015625
1.23668176379106E-06,-94.0848236083984
1.24220266452227E-06,-94.8596801757813
1.24772356525348E-06,-95.4716873168945
1.25324446598469E-06,-95.8821487426758
1.2587653667159E-06,-96.061408996582
1.26428626744711E-06,-96.0496215820313
1.26980716817832E-06,-95.8764190673828
1.27532806890953E-06,-95.5643615722656
1.28084896964074E-06,-95.1360244750977
1.28636987037195E-06,-94.6139602661133
1.29189077110316E-06,-94.0207290649414
1.29741167183437E-06,-93.3789138793945
1.30293257256558E-06,-92.7110595703125
1.30845347329679E-06,-92.0397415161133
1.313974374028E-06,-91.3875122070313
1.31949527475921E-06,-90.7769546508789
1.32501617549042E-06,-90.2199478149414
1.33053707622163E-06,-89.6421737670898
1.33605797695284E-06,-89.0309829711914
1.34157887768405E-06,-88.39404296875
1.34709977841526E-06,-87.7390213012695
1.35262067914647E-06,-87.0735931396484
1.35814157987768E-06,-86.4054183959961
1.36366248060889E-06,-85.7421722412109
1.3691833813401E-06,-85.0915222167969
1.37470428207131E-06,-84.4611358642578
1.38022518280252E-06,-83.8586959838867
1.38574608353373E-06,-83.2918548583984
1.39126698426494E-06,-82.7665328979492
1.39678788499615E-06,-82.2660140991211
1.40230878572736E-06,-81.7839050292969
1.40782968645858E-06,-81.3198471069336
1.41335058718979E-06,-80.8734970092773
1.418871487921E-06,-80.4445114135742
1.42439238865221E-06,-80.0325317382813
1.42991328938342E-06,-79.6372146606445
1.43543419011463E-06,-79.2582092285156
1.44095509084584E-06,-78.8951721191406
1.44647599157705E-06,-78.547737121582
1.45199689230826E-06,-78.2155685424805
1.45751779303947E-06,-77.898551940918
1.46303869377068E-06,-77.6008682250977
1.46855959450189E-06,-77.3230819702148
1.4740804952331E-06,-77.0638046264648
1.47960139596431E-06,-76.821647644043
1.48512229669552E-06,-76.5952224731445
1.49064319742673E-06,-76.3831329345703
1.49616409815794E-06,-76.1839981079102
1.50168499888915E-06,-75.9964294433594
1.50720589962036E-06,-75.8190307617188
1.51272680035157E-06,-75.6504058837891
1.51824770108278E-06,-75.4891738891602
1.52376860181399E-06,-75.3341293334961
1.5292895025452E-06,-75.1905899047852
1.53481040327641E-06,-75.0607528686523
1.54033130400762E-06,-74.9434661865234
1.54585220473883E-06,-74.8376083374023
1.55137310547004E-06,-74.7420272827148
1.55689400620125E-06,-74.6555938720703
1.56241490693246E-06,-74.5771636962891
1.56793580766367E-06,-74.5055999755859
1.57345670839488E-06,-74.4397659301758
1.57897760912609E-06,-74.3785247802734
1.5844985098573E-06,-74.3207397460938
1.59001941058851E-06,-74.2653045654297
1.59554031131972E-06,-74.215446472168
1.60106121205093E-06,-74.1732406616211
1.60658211278214E-06,-74.1380844116211
1.61210301351335E-06,-74.1093673706055
1.61762391424456E-06,-74.0864868164063
1.62314481497577E-06,-74.0688323974609
1.62866571570698E-06,-74.055793762207
1.63418661643819E-06,-74.046760559082
1.6397075171694E-06,-74.041130065918
1.64522841790061E-06,-74.0382919311523
1.65074931863182E-06,-74.0376281738281
1.65627021936303E-06,-74.0385360717773
1.66179112009424E-06,-74.0365905761719
1.66731202082545E-06,-74.0301361083984
1.67283292155666E-06,-74.0218353271484
1.67835382228787E-06,-74.0143432617188
1.68387472301908E-06,-74.0103302001953
1.68939562375029E-06,-74.0124435424805
1.6949165244815E-06,-74.0233459472656
1.70043742521271E-06,-74.0456924438477
1.70595832594392E-06,-74.0821380615234
1.71147922667513E-06,-74.1353530883789
1.71700012740634E-06,-74.2079849243164
1.72252102813755E-06,-74.3026962280273
1.72804192886876E-06,-74.4078750610352
1.73356282959997E-06,-74.5112838745117
1.73908373033118E-06,-74.6181030273438
1.74460463106239E-06,-74.733528137207
1.7501255317936E-06,-74.8627624511719
1.75564643252481E-06,-75.0110092163086
1.76116733325602E-06,-75.1834716796875
1.76668823398723E-06,-75.3853530883789
1.77220913471844E-06,-75.6218414306641
1.77773003544965E-06,-75.8981552124023
1.78325093618086E-06,-76.219482421875
1.78877183691207E-06,-76.5910339355469
1.79429273764328E-06,-77.027717590332
1.79981363837449E-06,-77.5389785766602
1.8053345391057E-06,-78.1123580932617
1.81085543983691E-06,-78.7352142333984
1.81637634056812E-06,-79.3948974609375
1.82189724129933E-06,-80.0787582397461
1.82741814203054E-06,-80.7741394042969
1.83293904276175E-06,-81.4683990478516
1.83845994349296E-06,-82.1488876342773
1.84398084422417E-06,-82.8029479980469
1.84950174495538E-06,-83.4179458618164
1.85502264568659E-06,-83.9812164306641
1.8605435464178E-06,-84.4987335205078
1.86606444714901E-06,-85.0013732910156
1.87158534788022E-06,-85.4894790649414
1.87710624861143E-06,-85.9624633789063
1.88262714934264E-06,-86.4197311401367
1.88814805007385E-06,-86.8606948852539
1.89366895080506E-06,-87.2847595214844
1.89918985153627E-06,-87.6913375854492
1.90471075226748E-06,-88.0798416137695
1.91023165299869E-06,-88.4496688842773
1.9157525537299E-06,-88.8002395629883
1.92127345446111E-06,-89.1309585571289
1.92679435519232E-06,-89.4496231079102
1.93231525592353E-06,-89.7737045288086
1.93783615665474E-06,-90.0968170166016
1.94335705738595E-06,-90.4114227294922
1.94887795811716E-06,-90.7099914550781
1.95439885884837E-06,-90.9849853515625
1.95991975957958E-06,-91.2288665771484
1.9654406603108E-06,-91.4340972900391
1.970961561042E-06,-91.5931396484375
1.97648246177322E-06,-91.6984634399414
1.98200336250443E-06,-91.7425231933594
1.98752426323564E-06,-91.7177886962891
1.99304516396685E-06,-91.6090850830078
1.99856606469806E-06,-91.3950881958008
2.00408696542927E-06,-91.0908966064453
2.00960786616048E-06,-90.7141189575195
2.01512876689169E-06,-90.2823638916016
2.0206496676229E-06,-89.813232421875
2.02617056835411E-06,-89.3243408203125
2.03169146908532E-06,-88.8332901000977
2.03721236981653E-06,-88.3576812744141
2.04273327054774E-06,-87.9151306152344
2.04825417127895E-06,-87.5232391357422
2.05377507201016E-06,-87.1996154785156
2.05929597274137E-06,-86.9561004638672
2.06481687347258E-06,-86.7734909057617
2.07033777420379E-06,-86.6390762329102
2.075858674935E-06,-86.5422515869141
2.08137957566621E-06,-86.472412109375
2.08690047639742E-06,-86.4189453125
2.09242137712863E-06,-86.3712539672852
2.09794227785984E-06,-86.3187103271484
2.10346317859105E-06,-86.2507171630859
2.10898407932226E-06,-86.1566696166992
2.11450498005347E-06,-86.0259552001953
2.12002588078468E-06,-85.8479690551758
2.12554678151589E-06,-85.6135711669922
2.1310676822471E-06,-85.3280181884766
2.13658858297831E-06,-85.0004806518555
2.14210948370952E-06,-84.6395568847656
2.14763038444073E-06,-84.2538070678711
2.15315128517194E-06,-83.8518371582031
2.15867218590315E-06,-83.4422149658203
2.16419308663436E-06,-83.0335235595703
2.16971398736557E-06,-82.6343460083008
2.17523488809678E-06,-82.2532730102539
2.18075578882799E-06,-81.8988800048828
2.1862766895592E-06,-81.5797424316406
2.19179759029041E-06,-81.2994918823242
2.19731849102162E-06,-81.0259628295898
2.20283939175283E-06,-80.7552871704102
2.20836029248404E-06,-80.4918365478516
2.21388119321525E-06,-80.2399597167969
2.21940209394646E-06,-80.0040283203125
2.22492299467767E-06,-79.7883987426758
2.23044389540888E-06,-79.5974197387695
2.23596479614009E-06,-79.4354705810547
2.2414856968713E-06,-79.3069000244141
2.24700659760251E-06,-79.216064453125
2.25252749833372E-06,-79.1673355102539
2.25804839906493E-06,-79.1632232666016
2.26356929979614E-06,-79.1867141723633
2.26909020052735E-06,-79.234733581543
2.27461110125856E-06,-79.3099670410156
2.28013200198977E-06,-79.4151153564453
2.28565290272098E-06,-79.552864074707
2.29117380345219E-06,-79.7259216308594
2.2966947041834E-06,-79.9369583129883
2.30221560491461E-06,-80.1886901855469
2.30773650564582E-06,-80.4837951660156
2.31325740637703E-06,-80.8249740600586
2.31877830710824E-06,-81.2149200439453
2.32429920783945E-06,-81.6608734130859
2.32982010857066E-06,-82.2359924316406
2.33534100930187E-06,-82.9406890869141
2.34086191003308E-06,-83.7432250976563
2.34638281076429E-06,-84.6118698120117
2.3519037114955E-06,-85.5148773193359
2.35742461222671E-06,-86.4205093383789
2.36294551295792E-06,-87.2970275878906
2.36846641368913E-06,-88.1126937866211
2.37398731442034E-06,-88.8357620239258
2.37950821515155E-06,-89.4344940185547
2.38502911588276E-06,-89.8771591186523
2.39055001661397E-06,-90.1329193115234
2.39607091734518E-06,-90.2113952636719
2.40159181807639E-06,-90.1423950195313
2.4071127188076E-06,-89.9480209350586
2.41263361953881E-06,-89.6503753662109
2.41815452027002E-06,-89.2715454101563
2.42367542100123E-06,-88.8336410522461
2.42919632173244E-06,-88.3587493896484
2.43471722246365E-06,-87.8689804077148
2.44023812319486E-06,-87.3864212036133
2.44575902392607E-06,-86.9331741333008
2.45127992465728E-06,-86.5313415527344
2.45680082538849E-06,-86.2021408081055
2.4623217261197E-06,-85.9023132324219
2.46784262685091E-06,-85.5992431640625
2.47336352758212E-06,-85.2953491210938
2.47888442831333E-06,-84.9930419921875
2.48440532904454E-06,-84.6947326660156
2.48992622977575E-06,-84.40283203125
2.49544713050696E-06,-84.1197509765625
2.50096803123817E-06,-83.8479080200195
2.50648893196938E-06,-83.5896987915039
2.51200983270059E-06,-83.3475570678711
2.5175307334318E-06,-83.1238708496094
2.52305163416301E-06,-82.9210586547852
2.52857253489422E-06,-82.736572265625
2.53409343562543E-06,-82.5668411254883
2.53961433635665E-06,-82.4114303588867
2.54513523708785E-06,-82.269889831543
2.55065613781907E-06,-82.1417770385742
2.55617703855028E-06,-82.0266647338867
2.56169793928149E-06,-81.9240951538086
2.5672188400127E-06,-81.8336410522461
2.57273974074391E-06,-81.7548599243164
2.57826064147512E-06,-81.6873092651367
2.58378154220633E-06,-81.6305389404297
2.58930244293754E-06,-81.5841217041016
2.59482334366875E-06,-81.5501098632813
2.60034424439996E-06,-81.5304641723633
2.60586514513117E-06,-81.5242919921875
2.61138604586238E-06,-81.5307159423828
2.61690694659359E-06,-81.5488510131836
2.6224278473248E-06,-81.5778198242188
2.62794874805601E-06,-81.6167297363281
2.63346964878722E-06,-81.6646957397461
2.63899054951843E-06,-81.7208404541016
2.64451145024964E-06,-81.7842788696289
2.65003235098085E-06,-81.854118347168
2.65555325171206E-06,-81.9294891357422
2.66107415244327E-06,-82.0179901123047
2.66659505317448E-06,-82.1286773681641
2.67211595390569E-06,-82.2570953369141
2.6776368546369E-06,-82.3987121582031
2.68315775536811E-06,-82.5489807128906
2.68867865609932E-06,-82.703369140625
2.69419955683053E-06,-82.8573379516602
2.69972045756174E-06,-83.00634765625
2.70524135829295E-06,-83.1458587646484
2.71076225902416E-06,-83.2713317871094
2.71628315975537E-06,-83.3782196044922
2.72180406048658E-06,-83.4619979858398
