Trace
Swept SA
A.19.55,N9020B
508 AB2 B25 B40 B85 DP2 DP4 EP2 FS1 FS2 MPB RTL ,01
Segment,0
Number of Points,81920
Sweep Time,0.0004096
Start Frequency,2400000000
Stop Frequency,2400000000
Average Count,0
Average Type,LogPower(Video)
RBW,3000000
RBW Filter,Gaussian
RBW Filter BW,3dB
VBW,3000000
Sweep Type,Swept
X Axis Scale,Lin
PreAmp State,Off
PreAmp Band,Low
Trigger Source,Ext1
Trigger Level,1.2
Trigger Slope,Positive
Trigger Delay,1E-06
Phase Noise Optimization,Fast
Swept If Gain,Low
FFT If Gain,Autorange
RF Coupling,AC
FFT Width,411900
Ext Ref,10000000
Input,RF
RF Calibrator,Off
Attenuation,6
Ref Level Offset,0
External Gain,0
Trace Type,Clearwrite
Detector,Normal
Trace Math,Off
Trace Math Oper1,Trace5
Trace Math Oper2,Trace6
Trace Math Offset,0
Normalize,Off
Trace Name,Trace1
X Axis Units,s
Y Axis Units,dBm
DATA
0,-77.5106811523438
5.00006103590132E-09,-77.5389556884766
1.00001220718026E-08,-77.5501708984375
1.50001831077039E-08,-77.5496139526367
2.00002441436053E-08,-77.5425491333008
2.50003051795066E-08,-77.5342559814453
3.00003662154079E-08,-77.5300064086914
3.50004272513092E-08,-77.5350723266602
4.00004882872105E-08,-77.5547256469727
4.50005493231118E-08,-77.5942459106445
5.00006103590132E-08,-77.6589126586914
5.50006713949145E-08,-77.7539825439453
6.00007324308158E-08,-77.8839492797852
6.50007934667171E-08,-78.0415496826172
7.00008545026184E-08,-78.2219085693359
7.50009155385197E-08,-78.4227752685547
8.00009765744211E-08,-78.6419143676758
8.50010376103224E-08,-78.8770599365234
9.00010986462237E-08,-79.1259689331055
9.5001159682125E-08,-79.3863983154297
1.00001220718026E-07,-79.6560821533203
1.05001281753928E-07,-79.9327850341797
1.10001342789829E-07,-80.214241027832
1.1500140382573E-07,-80.4982223510742
1.20001464861632E-07,-80.7824554443359
1.25001525897533E-07,-81.0647048950195
1.30001586933434E-07,-81.3658828735352
1.35001647969336E-07,-81.7026138305664
1.40001709005237E-07,-82.0662536621094
1.45001770041138E-07,-82.4481582641602
1.50001831077039E-07,-82.8396759033203
1.55001892112941E-07,-83.2321395874023
1.60001953148842E-07,-83.6169128417969
1.65002014184743E-07,-83.9853363037109
1.70002075220645E-07,-84.3287658691406
1.75002136256546E-07,-84.6385498046875
1.80002197292447E-07,-84.9060287475586
1.85002258328349E-07,-85.12255859375
1.9000231936425E-07,-85.2794799804688
1.95002380400151E-07,-85.3711853027344
2.00002441436053E-07,-85.4058074951172
2.05002502471954E-07,-85.3901519775391
2.10002563507855E-07,-85.3305511474609
2.15002624543757E-07,-85.2333450317383
2.20002685579658E-07,-85.1048583984375
2.25002746615559E-07,-84.951416015625
2.30002807651461E-07,-84.7793579101563
2.35002868687362E-07,-84.5950164794922
2.40002929723263E-07,-84.4047088623047
2.45002990759165E-07,-84.2147750854492
2.50003051795066E-07,-84.0315475463867
2.55003112830967E-07,-83.8613510131836
2.60003173866868E-07,-83.7086639404297
2.6500323490277E-07,-83.5541534423828
2.70003295938671E-07,-83.3918380737305
2.75003356974572E-07,-83.222770690918
2.80003418010474E-07,-83.0479965209961
2.85003479046375E-07,-82.8685455322266
2.90003540082276E-07,-82.6854782104492
2.95003601118178E-07,-82.4998321533203
3.00003662154079E-07,-82.3126449584961
3.0500372318998E-07,-82.1249771118164
3.10003784225882E-07,-81.937858581543
3.15003845261783E-07,-81.7523422241211
3.20003906297684E-07,-81.569465637207
3.25003967333586E-07,-81.3902816772461
3.30004028369487E-07,-81.2077102661133
3.35004089405388E-07,-81.0157852172852
3.4000415044129E-07,-80.8172607421875
3.45004211477191E-07,-80.6148681640625
3.50004272513092E-07,-80.4113540649414
3.55004333548993E-07,-80.2094497680664
3.60004394584895E-07,-80.0118942260742
3.65004455620796E-07,-79.8214340209961
3.70004516656697E-07,-79.6408004760742
3.75004577692599E-07,-79.4727401733398
3.800046387285E-07,-79.3199844360352
3.85004699764401E-07,-79.1852798461914
3.90004760800303E-07,-79.0713653564453
3.95004821836204E-07,-78.9757080078125
4.00004882872105E-07,-78.8838348388672
4.05004943908007E-07,-78.7970352172852
4.10005004943908E-07,-78.717887878418
4.15005065979809E-07,-78.6489944458008
4.20005127015711E-07,-78.5929489135742
4.25005188051612E-07,-78.5523300170898
4.30005249087513E-07,-78.5297317504883
4.35005310123415E-07,-78.5277557373047
4.40005371159316E-07,-78.5489807128906
4.45005432195217E-07,-78.5960083007813
4.50005493231119E-07,-78.6714248657227
4.5500555426702E-07,-78.7778244018555
4.60005615302921E-07,-78.9194946289063
4.65005676338822E-07,-79.1174240112305
4.70005737374724E-07,-79.3695373535156
4.75005798410625E-07,-79.6660766601563
4.80005859446526E-07,-79.9972610473633
4.85005920482428E-07,-80.3533096313477
4.90005981518329E-07,-80.7244491577148
4.9500604255423E-07,-81.1009140014648
5.00006103590132E-07,-81.4729309082031
5.05006164626033E-07,-81.8307113647461
5.10006225661934E-07,-82.1644973754883
5.15006286697836E-07,-82.4645004272461
5.20006347733737E-07,-82.7209625244141
5.25006408769638E-07,-82.9240951538086
5.3000646980554E-07,-83.0828628540039
5.35006530841441E-07,-83.214225769043
5.40006591877342E-07,-83.320442199707
5.45006652913243E-07,-83.4037475585938
5.50006713949145E-07,-83.4664001464844
5.55006774985046E-07,-83.5106353759766
5.60006836020948E-07,-83.5387191772461
5.65006897056849E-07,-83.5528945922852
5.7000695809275E-07,-83.5553970336914
5.75007019128651E-07,-83.5484924316406
5.80007080164553E-07,-83.5344161987305
5.85007141200454E-07,-83.5154190063477
5.90007202236355E-07,-83.4937515258789
5.95007263272257E-07,-83.4619903564453
6.00007324308158E-07,-83.3935470581055
6.05007385344059E-07,-83.2937088012695
6.10007446379961E-07,-83.170295715332
6.15007507415862E-07,-83.0311431884766
6.20007568451763E-07,-82.8840637207031
6.25007629487665E-07,-82.7368698120117
6.30007690523566E-07,-82.5973968505859
6.35007751559467E-07,-82.4734573364258
6.40007812595369E-07,-82.3728713989258
6.4500787363127E-07,-82.303466796875
6.50007934667171E-07,-82.2730560302734
6.55007995703072E-07,-82.2894592285156
6.60008056738974E-07,-82.3586120605469
6.65008117774875E-07,-82.4613342285156
6.70008178810776E-07,-82.5902862548828
6.75008239846678E-07,-82.7451171875
6.80008300882579E-07,-82.9254455566406
6.8500836191848E-07,-83.1309127807617
6.90008422954382E-07,-83.3611450195313
6.95008483990283E-07,-83.6157760620117
7.00008545026184E-07,-83.8944320678711
7.05008606062086E-07,-84.1967544555664
7.10008667097987E-07,-84.5223693847656
7.15008728133888E-07,-84.8709030151367
7.2000878916979E-07,-85.2419967651367
7.25008850205691E-07,-85.6352767944336
7.30008911241592E-07,-86.0913543701172
7.35008972277494E-07,-86.6380767822266
7.40009033313395E-07,-87.2559356689453
7.45009094349296E-07,-87.925422668457
7.50009155385198E-07,-88.6270446777344
7.55009216421099E-07,-89.3412780761719
7.60009277457E-07,-90.0486297607422
7.65009338492901E-07,-90.7295913696289
7.70009399528803E-07,-91.3646469116211
7.75009460564704E-07,-91.9342956542969
7.80009521600605E-07,-92.4190368652344
7.85009582636507E-07,-92.7993621826172
7.90009643672408E-07,-93.0557632446289
7.95009704708309E-07,-93.1799774169922
8.00009765744211E-07,-93.202522277832
8.05009826780112E-07,-93.1352310180664
8.10009887816013E-07,-92.9876937866211
8.15009948851915E-07,-92.7694702148438
8.20010009887816E-07,-92.4901351928711
8.25010070923717E-07,-92.1592636108398
8.30010131959619E-07,-91.7864227294922
8.3501019299552E-07,-91.3811874389648
8.40010254031421E-07,-90.9531326293945
8.45010315067323E-07,-90.5118255615234
8.50010376103224E-07,-90.0668487548828
8.55010437139125E-07,-89.6277542114258
8.60010498175026E-07,-89.1997909545898
8.65010559210928E-07,-88.7355651855469
8.70010620246829E-07,-88.2257919311523
8.7501068128273E-07,-87.6784744262695
8.80010742318632E-07,-87.1015930175781
8.85010803354533E-07,-86.5031204223633
8.90010864390434E-07,-85.8910522460938
8.95010925426336E-07,-85.2733764648438
9.00010986462237E-07,-84.658073425293
9.05011047498138E-07,-84.0531311035156
9.1001110853404E-07,-83.4665298461914
9.15011169569941E-07,-82.9062652587891
9.20011230605842E-07,-82.3803100585938
9.25011291641744E-07,-81.8966598510742
9.30011352677645E-07,-81.4409027099609
9.35011413713546E-07,-80.9943923950195
9.40011474749448E-07,-80.5587463378906
9.45011535785349E-07,-80.1355590820313
9.5001159682125E-07,-79.7264633178711
9.55011657857151E-07,-79.3330459594727
9.60011718893053E-07,-78.9569396972656
9.65011779928954E-07,-78.599739074707
9.70011840964855E-07,-78.263069152832
9.75011902000757E-07,-77.9485321044922
9.80011963036658E-07,-77.6577377319336
9.85012024072559E-07,-77.3923034667969
9.90012085108461E-07,-77.1538314819336
9.95012146144362E-07,-76.9428024291992
1.00001220718026E-06,-76.7561111450195
1.00501226821616E-06,-76.5929336547852
1.01001232925207E-06,-76.4527206420898
1.01501239028797E-06,-76.3349075317383
1.02001245132387E-06,-76.2389221191406
1.02501251235977E-06,-76.1641998291016
1.03001257339567E-06,-76.1101760864258
1.03501263443157E-06,-76.0762939453125
1.04001269546747E-06,-76.0619812011719
1.04501275650338E-06,-76.0666732788086
1.05001281753928E-06,-76.0898132324219
1.05501287857518E-06,-76.1308288574219
1.06001293961108E-06,-76.1892318725586
1.06501300064698E-06,-76.2656402587891
1.07001306168288E-06,-76.3605728149414
1.07501312271878E-06,-76.4743270874023
1.08001318375468E-06,-76.6072006225586
1.08501324479059E-06,-76.7594909667969
1.09001330582649E-06,-76.9314880371094
1.09501336686239E-06,-77.1234893798828
1.10001342789829E-06,-77.3357925415039
1.10501348893419E-06,-77.5686950683594
1.11001354997009E-06,-77.8224868774414
1.11501361100599E-06,-78.0974655151367
1.1200136720419E-06,-78.393928527832
1.1250137330778E-06,-78.7121734619141
1.1300137941137E-06,-79.0823974609375
1.1350138551496E-06,-79.5246658325195
1.1400139161855E-06,-80.0240936279297
1.1450139772214E-06,-80.565788269043
1.1500140382573E-06,-81.1348648071289
1.1550140992932E-06,-81.7164306640625
1.16001416032911E-06,-82.2955932617188
1.16501422136501E-06,-82.8574676513672
1.17001428240091E-06,-83.3871536254883
1.17501434343681E-06,-83.8697738647461
1.18001440447271E-06,-84.2904357910156
1.18501446550861E-06,-84.6342468261719
1.19001452654451E-06,-84.8863143920898
1.19501458758041E-06,-85.0403900146484
1.20001464861632E-06,-85.1199188232422
1.20501470965222E-06,-85.1338882446289
1.21001477068812E-06,-85.0895538330078
1.21501483172402E-06,-84.9941635131836
1.22001489275992E-06,-84.8549652099609
1.22501495379582E-06,-84.6792144775391
1.23001501483172E-06,-84.4741592407227
1.23501507586763E-06,-84.2470474243164
1.24001513690353E-06,-84.005126953125
1.24501519793943E-06,-83.7556533813477
1.25001525897533E-06,-83.5058670043945
1.25501532001123E-06,-83.2630233764648
1.26001538104713E-06,-83.0312881469727
1.26501544208303E-06,-82.7771606445313
1.27001550311893E-06,-82.4936447143555
1.27501556415484E-06,-82.1859588623047
1.28001562519074E-06,-81.8592910766602
1.28501568622664E-06,-81.5188446044922
1.29001574726254E-06,-81.1698303222656
1.29501580829844E-06,-80.8174514770508
1.30001586933434E-06,-80.4669036865234
1.30501593037024E-06,-80.123405456543
1.31001599140614E-06,-79.7921371459961
1.31501605244205E-06,-79.4783248901367
1.32001611347795E-06,-79.1871566772461
1.32501617451385E-06,-78.9238357543945
1.33001623554975E-06,-78.6803207397461
1.33501629658565E-06,-78.4453506469727
1.34001635762155E-06,-78.2193298339844
1.34501641865745E-06,-78.0026550292969
1.35001647969336E-06,-77.7957305908203
1.35501654072926E-06,-77.5989608764648
1.36001660176516E-06,-77.4127502441406
1.36501666280106E-06,-77.2374954223633
1.37001672383696E-06,-77.0735931396484
1.37501678487286E-06,-76.9214553833008
1.38001684590876E-06,-76.7814788818359
1.38501690694466E-06,-76.6540679931641
1.39001696798057E-06,-76.5396270751953
1.39501702901647E-06,-76.4368438720703
1.40001709005237E-06,-76.3410491943359
1.40501715108827E-06,-76.253173828125
1.41001721212417E-06,-76.1745758056641
1.41501727316007E-06,-76.1066284179688
1.42001733419597E-06,-76.0506973266602
1.42501739523188E-06,-76.0081634521484
1.43001745626778E-06,-75.9803848266602
1.43501751730368E-06,-75.9687271118164
1.44001757833958E-06,-75.9745712280273
1.44501763937548E-06,-75.9992828369141
1.45001770041138E-06,-76.0442276000977
1.45501776144728E-06,-76.1107788085938
1.46001782248318E-06,-76.20166015625
1.46501788351909E-06,-76.3333358764648
1.47001794455499E-06,-76.5047988891602
1.47501800559089E-06,-76.7089767456055
1.48001806662679E-06,-76.9387969970703
1.48501812766269E-06,-77.1872100830078
1.49001818869859E-06,-77.4471435546875
1.49501824973449E-06,-77.7115325927734
1.5000183107704E-06,-77.9733200073242
1.5050183718063E-06,-78.2254333496094
1.5100184328422E-06,-78.4608001708984
1.5150184938781E-06,-78.6723785400391
1.520018554914E-06,-78.8530807495117
1.5250186159499E-06,-78.9958648681641
1.5300186769858E-06,-79.1236877441406
1.5350187380217E-06,-79.2599945068359
1.54001879905761E-06,-79.3983535766602
1.54501886009351E-06,-79.5323791503906
1.55001892112941E-06,-79.655647277832
1.55501898216531E-06,-79.7617645263672
1.56001904320121E-06,-79.8443222045898
1.56501910423711E-06,-79.8969039916992
1.57001916527301E-06,-79.9131088256836
1.57501922630891E-06,-79.8865356445313
1.58001928734482E-06,-79.8107681274414
1.58501934838072E-06,-79.6794052124023
1.59001940941662E-06,-79.4860305786133
1.59501947045252E-06,-79.2202911376953
1.60001953148842E-06,-78.8710861206055
1.60501959252432E-06,-78.4484024047852
1.61001965356022E-06,-77.9635543823242
1.61501971459613E-06,-77.4278411865234
1.62001977563203E-06,-76.8525619506836
1.62501983666793E-06,-76.2490386962891
1.63001989770383E-06,-75.6285552978516
1.63501995873973E-06,-75.0024337768555
1.64002001977563E-06,-74.3819732666016
1.64502008081153E-06,-73.7784805297852
1.65002014184743E-06,-73.203254699707
1.65502020288334E-06,-72.6676025390625
1.66002026391924E-06,-72.1792526245117
1.66502032495514E-06,-71.7004928588867
1.67002038599104E-06,-71.2205963134766
1.67502044702694E-06,-70.742561340332
1.68002050806284E-06,-70.2693786621094
1.68502056909874E-06,-69.8040390014648
1.69002063013465E-06,-69.3495254516602
1.69502069117055E-06,-68.9088363647461
1.70002075220645E-06,-68.4849624633789
1.70502081324235E-06,-68.0808868408203
1.71002087427825E-06,-67.6996078491211
1.71502093531415E-06,-67.344108581543
1.72002099635005E-06,-67.0173797607422
1.72502105738595E-06,-66.7224197387695
1.73002111842186E-06,-66.4533615112305
1.73502117945776E-06,-66.2028884887695
1.74002124049366E-06,-65.9718475341797
1.74502130152956E-06,-65.7610626220703
1.75002136256546E-06,-65.5713729858398
1.75502142360136E-06,-65.4036102294922
1.76002148463726E-06,-65.2586059570313
1.76502154567316E-06,-65.1371994018555
1.77002160670907E-06,-65.0402145385742
1.77502166774497E-06,-64.9684982299805
1.78002172878087E-06,-64.9228668212891
1.78502178981677E-06,-64.904167175293
1.79002185085267E-06,-64.9132308959961
1.79502191188857E-06,-64.9496383666992
1.80002197292447E-06,-65.0099639892578
1.80502203396038E-06,-65.0943222045898
1.81002209499628E-06,-65.2031173706055
1.81502215603218E-06,-65.3367614746094
1.82002221706808E-06,-65.4956665039063
1.82502227810398E-06,-65.6802368164063
1.83002233913988E-06,-65.8908843994141
1.83502240017578E-06,-66.1280288696289
1.84002246121168E-06,-66.3920745849609
1.84502252224759E-06,-66.6834259033203
1.85002258328349E-06,-67.0024948120117
1.85502264431939E-06,-67.3497009277344
1.86002270535529E-06,-67.7268295288086
1.86502276639119E-06,-68.1503524780273
1.87002282742709E-06,-68.6201171875
1.87502288846299E-06,-69.1299362182617
1.8800229494989E-06,-69.6736221313477
1.8850230105348E-06,-70.244987487793
1.8900230715707E-06,-70.8378372192383
1.8950231326066E-06,-71.4459991455078
1.9000231936425E-06,-72.0632705688477
1.9050232546784E-06,-72.6834716796875
1.9100233157143E-06,-73.300422668457
1.9150233767502E-06,-73.9079208374023
1.92002343778611E-06,-74.4997863769531
1.92502349882201E-06,-75.0698318481445
1.93002355985791E-06,-75.642578125
1.93502362089381E-06,-76.2415237426758
1.94002368192971E-06,-76.8589019775391
1.94502374296561E-06,-77.4869689941406
1.95002380400151E-06,-78.1179656982422
1.95502386503741E-06,-78.7441558837891
1.96002392607332E-06,-79.357780456543
1.96502398710922E-06,-79.9510879516602
1.97002404814512E-06,-80.5163269042969
1.97502410918102E-06,-81.0457458496094
1.98002417021692E-06,-81.5315933227539
1.98502423125282E-06,-81.9661254882813
1.99002429228872E-06,-82.3415832519531
1.99502435332463E-06,-82.6387557983398
2.00002441436053E-06,-82.8258514404297
2.00502447539643E-06,-82.9202575683594
2.01002453643233E-06,-82.942756652832
2.01502459746823E-06,-82.9141387939453
2.02002465850413E-06,-82.8551788330078
2.02502471954003E-06,-82.7866668701172
2.03002478057593E-06,-82.729377746582
2.03502484161184E-06,-82.7041015625
2.04002490264774E-06,-82.7316207885742
2.04502496368364E-06,-82.8327178955078
2.05002502471954E-06,-83.0281753540039
2.05502508575544E-06,-83.3387832641602
2.06002514679134E-06,-83.7901306152344
2.06502520782724E-06,-84.4470672607422
2.07002526886315E-06,-85.2916488647461
2.07502532989905E-06,-86.2820129394531
2.08002539093495E-06,-87.3762969970703
2.08502545197085E-06,-88.5326461791992
2.09002551300675E-06,-89.7091979980469
2.09502557404265E-06,-90.8640975952148
2.10002563507855E-06,-91.9554901123047
2.10502569611445E-06,-92.9415054321289
2.11002575715036E-06,-93.7802963256836
2.11502581818626E-06,-94.4299926757813
2.12002587922216E-06,-94.848747253418
2.12502594025806E-06,-94.9946975708008
2.13002600129396E-06,-94.8513793945313
2.13502606232986E-06,-94.4544448852539
2.14002612336576E-06,-93.8401870727539
2.14502618440166E-06,-93.0448760986328
2.15002624543757E-06,-92.1048202514648
2.15502630647347E-06,-91.0562973022461
2.16002636750937E-06,-89.9355926513672
2.16502642854527E-06,-88.7789993286133
2.17002648958117E-06,-87.6228103637695
2.17502655061707E-06,-86.503303527832
2.18002661165297E-06,-85.4567718505859
2.18502667268888E-06,-84.5195007324219
2.19002673372478E-06,-83.727783203125
2.19502679476068E-06,-83.0771331787109
2.20002685579658E-06,-82.4560699462891
2.20502691683248E-06,-81.8583602905273
2.21002697786838E-06,-81.2873611450195
2.21502703890428E-06,-80.7464065551758
2.22002709994018E-06,-80.2388534545898
2.22502716097609E-06,-79.7680511474609
2.23002722201199E-06,-79.3373413085938
2.23502728304789E-06,-78.950065612793
2.24002734408379E-06,-78.6095809936523
2.24502740511969E-06,-78.3192367553711
2.25002746615559E-06,-78.0823745727539
2.25502752719149E-06,-77.90234375
2.2600275882274E-06,-77.7843475341797
2.2650276492633E-06,-77.7515258789063
2.2700277102992E-06,-77.801139831543
2.2750277713351E-06,-77.9219818115234
2.280027832371E-06,-78.1028213500977
2.2850278934069E-06,-78.3324432373047
2.2900279544428E-06,-78.5996246337891
2.2950280154787E-06,-78.8931350708008
2.30002807651461E-06,-79.2017669677734
2.30502813755051E-06,-79.5142974853516
2.31002819858641E-06,-79.8194961547852
2.31502825962231E-06,-80.1061477661133
2.32002832065821E-06,-80.3630294799805
2.32502838169411E-06,-80.5789184570313
2.33002844273001E-06,-80.7857360839844
2.33502850376592E-06,-81.0176086425781
2.34002856480182E-06,-81.2665710449219
2.34502862583772E-06,-81.5246734619141
2.35002868687362E-06,-81.7839736938477
2.35502874790952E-06,-82.0365142822266
2.36002880894542E-06,-82.2743530273438
2.36502886998132E-06,-82.4895324707031
2.37002893101722E-06,-82.6741027832031
2.37502899205313E-06,-82.8201217651367
2.38002905308903E-06,-82.9196319580078
2.38502911412493E-06,-82.9646835327148
2.39002917516083E-06,-82.9473266601563
2.39502923619673E-06,-82.8545455932617
2.40002929723263E-06,-82.6721572875977
2.40502935826853E-06,-82.4126739501953
2.41002941930443E-06,-82.0902938842773
2.41502948034034E-06,-81.7191925048828
2.42002954137624E-06,-81.3135757446289
2.42502960241214E-06,-80.8876342773438
2.43002966344804E-06,-80.4555511474609
2.43502972448394E-06,-80.0315246582031
2.44002978551984E-06,-79.6297454833984
2.44502984655574E-06,-79.264404296875
2.45002990759165E-06,-78.9496841430664
2.45502996862755E-06,-78.6997909545898
2.46003002966345E-06,-78.5271148681641
2.46503009069935E-06,-78.4161682128906
