Trace
Swept SA
A.19.55,N9020B
508 AB2 B25 B40 B85 DP2 DP4 EP2 FS1 FS2 MPB RTL ,01
Segment,0
Number of Points,81920
Sweep Time,0.0004096
Start Frequency,2400000000
Stop Frequency,2400000000
Average Count,0
Average Type,LogPower(Video)
RBW,3000000
RBW Filter,Gaussian
RBW Filter BW,3dB
VBW,3000000
Sweep Type,Swept
X Axis Scale,Lin
PreAmp State,Off
PreAmp Band,Low
Trigger Source,Ext1
Trigger Level,1.2
Trigger Slope,Positive
Trigger Delay,1E-06
Phase Noise Optimization,Fast
Swept If Gain,Low
FFT If Gain,Autorange
RF Coupling,AC
FFT Width,411900
Ext Ref,10000000
Input,RF
RF Calibrator,Off
Attenuation,6
Ref Level Offset,0
External Gain,0
Trace Type,Clearwrite
Detector,Normal
Trace Math,Off
Trace Math Oper1,Trace5
Trace Math Oper2,Trace6
Trace Math Offset,0
Normalize,Off
Trace Name,Trace1
X Axis Units,s
Y Axis Units,dBm
DATA
0,-36.5154266357422
5.00006103590132E-09,-37.3385429382324
1.00001220718026E-08,-38.2418937683105
1.50001831077039E-08,-39.2040367126465
2.00002441436053E-08,-40.2035369873047
2.50003051795066E-08,-41.2189598083496
3.00003662154079E-08,-42.2288665771484
3.50004272513092E-08,-43.2118263244629
4.00004882872105E-08,-44.1463928222656
4.50005493231118E-08,-45.0111389160156
5.00006103590132E-08,-45.7846260070801
5.50006713949145E-08,-46.4454154968262
6.00007324308158E-08,-46.9759674072266
6.50007934667171E-08,-47.4137191772461
7.00008545026184E-08,-47.7785491943359
7.50009155385197E-08,-48.0768127441406
8.00009765744211E-08,-48.3148651123047
8.50010376103224E-08,-48.4990615844727
9.00010986462237E-08,-48.6357536315918
9.5001159682125E-08,-48.7312965393066
1.00001220718026E-07,-48.792049407959
1.05001281753928E-07,-48.8243637084961
1.10001342789829E-07,-48.8345947265625
1.1500140382573E-07,-48.8290977478027
1.20001464861632E-07,-48.8142280578613
1.25001525897533E-07,-48.7963409423828
1.30001586933434E-07,-48.7400894165039
1.35001647969336E-07,-48.6144943237305
1.40001709005237E-07,-48.4324607849121
1.45001770041138E-07,-48.2068862915039
1.50001831077039E-07,-47.9506683349609
1.55001892112941E-07,-47.6767120361328
1.60001953148842E-07,-47.3979110717773
1.65002014184743E-07,-47.1271743774414
1.70002075220645E-07,-46.8773956298828
1.75002136256546E-07,-46.6614799499512
1.80002197292447E-07,-46.4923248291016
1.85002258328349E-07,-46.3828315734863
1.9000231936425E-07,-46.3458976745605
1.95002380400151E-07,-46.3894577026367
2.00002441436053E-07,-46.5001411437988
2.05002502471954E-07,-46.6681518554688
2.10002563507855E-07,-46.884521484375
2.15002624543757E-07,-47.1402893066406
2.20002685579658E-07,-47.4264945983887
2.25002746615559E-07,-47.7341728210449
2.30002807651461E-07,-48.0543594360352
2.35002868687362E-07,-48.3780899047852
2.40002929723263E-07,-48.6964073181152
2.45002990759165E-07,-49.0003471374512
2.50003051795066E-07,-49.2809410095215
2.55003112830967E-07,-49.5292320251465
2.60003173866868E-07,-49.7396125793457
2.6500323490277E-07,-49.9481201171875
2.70003295938671E-07,-50.1633377075195
2.75003356974572E-07,-50.3807182312012
2.80003418010474E-07,-50.5957336425781
2.85003479046375E-07,-50.8038444519043
2.90003540082276E-07,-51.0005149841309
2.95003601118178E-07,-51.181209564209
3.00003662154079E-07,-51.3413887023926
3.0500372318998E-07,-51.4765205383301
3.10003784225882E-07,-51.5820655822754
3.15003845261783E-07,-51.6534881591797
3.20003906297684E-07,-51.6862525939941
3.25003967333586E-07,-51.6758193969727
3.30004028369487E-07,-51.5876045227051
3.35004089405388E-07,-51.4033012390137
3.4000415044129E-07,-51.1428031921387
3.45004211477191E-07,-50.8260040283203
3.50004272513092E-07,-50.4727897644043
3.55004333548993E-07,-50.1030616760254
3.60004394584895E-07,-49.7367057800293
3.65004455620796E-07,-49.393611907959
3.70004516656697E-07,-49.0936813354492
3.75004577692599E-07,-48.8568000793457
3.800046387285E-07,-48.7028617858887
3.85004699764401E-07,-48.6517562866211
3.90004760800303E-07,-48.7233810424805
3.95004821836204E-07,-48.9455451965332
4.00004882872105E-07,-49.3406028747559
4.05004943908007E-07,-49.8810272216797
4.10005004943908E-07,-50.5363960266113
4.15005065979809E-07,-51.2762718200684
4.20005127015711E-07,-52.0702209472656
4.25005188051612E-07,-52.8878211975098
4.30005249087513E-07,-53.6986389160156
4.35005310123415E-07,-54.472240447998
4.40005371159316E-07,-55.1781959533691
4.45005432195217E-07,-55.7860717773438
4.50005493231119E-07,-56.2654457092285
4.5500555426702E-07,-56.5858764648438
4.60005615302921E-07,-56.7202987670898
4.65005676338822E-07,-56.6962852478027
4.70005737374724E-07,-56.5417251586914
4.75005798410625E-07,-56.2746620178223
4.80005859446526E-07,-55.913143157959
4.85005920482428E-07,-55.4752082824707
4.90005981518329E-07,-54.9789047241211
4.9500604255423E-07,-54.4422798156738
5.00006103590132E-07,-53.883373260498
5.05006164626033E-07,-53.3202362060547
5.10006225661934E-07,-52.7709121704102
5.15006286697836E-07,-52.2534446716309
5.20006347733737E-07,-51.7858772277832
5.25006408769638E-07,-51.3862571716309
5.3000646980554E-07,-51.0112571716309
5.35006530841441E-07,-50.6114463806152
5.40006591877342E-07,-50.1957092285156
5.45006652913243E-07,-49.7729263305664
5.50006713949145E-07,-49.3519897460938
5.55006774985046E-07,-48.9417839050293
5.60006836020948E-07,-48.5511856079102
5.65006897056849E-07,-48.1890869140625
5.7000695809275E-07,-47.864372253418
5.75007019128651E-07,-47.5859222412109
5.80007080164553E-07,-47.3626251220703
5.85007141200454E-07,-47.2033653259277
5.90007202236355E-07,-47.1170234680176
5.95007263272257E-07,-47.1176261901855
6.00007324308158E-07,-47.219539642334
6.05007385344059E-07,-47.4092063903809
6.10007446379961E-07,-47.6713409423828
6.15007507415862E-07,-47.9906463623047
6.20007568451763E-07,-48.3518333435059
6.25007629487665E-07,-48.7396125793457
6.30007690523566E-07,-49.1386909484863
6.35007751559467E-07,-49.5337791442871
6.40007812595369E-07,-49.9095840454102
6.4500787363127E-07,-50.2508201599121
6.50007934667171E-07,-50.5421905517578
6.55007995703072E-07,-50.7684097290039
6.60008056738974E-07,-50.9177284240723
6.65008117774875E-07,-51.0258827209473
6.70008178810776E-07,-51.1071662902832
6.75008239846678E-07,-51.1629257202148
6.80008300882579E-07,-51.1945114135742
6.8500836191848E-07,-51.2032661437988
6.90008422954382E-07,-51.190544128418
6.95008483990283E-07,-51.1576805114746
7.00008545026184E-07,-51.1060333251953
7.05008606062086E-07,-51.0369415283203
7.10008667097987E-07,-50.9517555236816
7.15008728133888E-07,-50.8518218994141
7.2000878916979E-07,-50.7384910583496
7.25008850205691E-07,-50.6131019592285
7.30008911241592E-07,-50.4550437927246
7.35008972277494E-07,-50.2488822937012
7.40009033313395E-07,-50.0037384033203
7.45009094349296E-07,-49.7287254333496
7.50009155385198E-07,-49.4329681396484
7.55009216421099E-07,-49.1255836486816
7.60009277457E-07,-48.8156929016113
7.65009338492901E-07,-48.5124130249023
7.70009399528803E-07,-48.2248611450195
7.75009460564704E-07,-47.9621620178223
7.80009521600605E-07,-47.7334327697754
7.85009582636507E-07,-47.5477905273438
7.90009643672408E-07,-47.4143562316895
7.95009704708309E-07,-47.3392753601074
8.00009765744211E-07,-47.3145866394043
8.05009826780112E-07,-47.332935333252
8.10009887816013E-07,-47.3874015808105
8.15009948851915E-07,-47.4710845947266
8.20010009887816E-07,-47.5770645141602
8.25010070923717E-07,-47.6984367370605
8.30010131959619E-07,-47.8282852172852
8.3501019299552E-07,-47.9597053527832
8.40010254031421E-07,-48.0857810974121
8.45010315067323E-07,-48.1996002197266
8.50010376103224E-07,-48.2942543029785
8.55010437139125E-07,-48.3628349304199
8.60010498175026E-07,-48.4002265930176
8.65010559210928E-07,-48.4249114990234
8.70010620246829E-07,-48.4433860778809
8.7501068128273E-07,-48.4554328918457
8.80010742318632E-07,-48.4608345031738
8.85010803354533E-07,-48.4593849182129
8.90010864390434E-07,-48.4508666992188
8.95010925426336E-07,-48.4350624084473
9.00010986462237E-07,-48.4117622375488
9.05011047498138E-07,-48.3807525634766
9.1001110853404E-07,-48.3418159484863
9.15011169569941E-07,-48.2947387695313
9.20011230605842E-07,-48.2393112182617
9.25011291641744E-07,-48.1753196716309
9.30011352677645E-07,-48.0822982788086
9.35011413713546E-07,-47.9466743469238
9.40011474749448E-07,-47.7785339355469
9.45011535785349E-07,-47.5879859924316
9.5001159682125E-07,-47.3851165771484
9.55011657857151E-07,-47.1800270080566
9.60011718893053E-07,-46.9828147888184
9.65011779928954E-07,-46.8035736083984
9.70011840964855E-07,-46.6524047851563
9.75011902000757E-07,-46.5394020080566
9.80011963036658E-07,-46.4746627807617
9.85012024072559E-07,-46.4682807922363
9.90012085108461E-07,-46.5303611755371
9.95012146144362E-07,-46.676155090332
1.00001220718026E-06,-46.9201507568359
1.00501226821616E-06,-47.2474708557129
1.01001232925207E-06,-47.6414527893066
1.01501239028797E-06,-48.0854415893555
1.02001245132387E-06,-48.5627708435059
1.02501251235977E-06,-49.0567817687988
1.03001257339567E-06,-49.5508155822754
1.03501263443157E-06,-50.028205871582
1.04001269546747E-06,-50.472297668457
1.04501275650338E-06,-50.8664245605469
1.05001281753928E-06,-51.1939315795898
1.05501287857518E-06,-51.4381523132324
1.06001293961108E-06,-51.585132598877
1.06501300064698E-06,-51.6601295471191
1.07001306168288E-06,-51.678539276123
1.07501312271878E-06,-51.6466636657715
1.08001318375468E-06,-51.5707893371582
1.08501324479059E-06,-51.4572143554688
1.09001330582649E-06,-51.3122291564941
1.09501336686239E-06,-51.1421279907227
1.10001342789829E-06,-50.9532051086426
1.10501348893419E-06,-50.7517509460449
1.11001354997009E-06,-50.5440635681152
1.11501361100599E-06,-50.3364295959473
1.1200136720419E-06,-50.1351509094238
1.1250137330778E-06,-49.9465141296387
1.1300137941137E-06,-49.7464942932129
1.1350138551496E-06,-49.5118179321289
1.1400139161855E-06,-49.2499237060547
1.1450139772214E-06,-48.9682540893555
1.1500140382573E-06,-48.6742477416992
1.1550140992932E-06,-48.3753395080566
1.16001416032911E-06,-48.0789680480957
1.16501422136501E-06,-47.7925758361816
1.17001428240091E-06,-47.5235977172852
1.17501434343681E-06,-47.279468536377
1.18001440447271E-06,-47.0676383972168
1.18501446550861E-06,-46.8955345153809
1.19001452654451E-06,-46.7705993652344
1.19501458758041E-06,-46.6990699768066
1.20001464861632E-06,-46.6778335571289
1.20501470965222E-06,-46.6999053955078
1.21001477068812E-06,-46.7583503723145
1.21501483172402E-06,-46.8462181091309
1.22001489275992E-06,-46.9565734863281
1.22501495379582E-06,-47.0824661254883
1.23001501483172E-06,-47.2169609069824
1.23501507586763E-06,-47.3531112670898
1.24001513690353E-06,-47.4839744567871
1.24501519793943E-06,-47.6026077270508
1.25001525897533E-06,-47.7020721435547
1.25501532001123E-06,-47.7754173278809
1.26001538104713E-06,-47.8175621032715
1.26501544208303E-06,-47.8476219177246
1.27001550311893E-06,-47.8721199035645
1.27501556415484E-06,-47.8906517028809
1.28001562519074E-06,-47.9028053283691
1.28501568622664E-06,-47.9081764221191
1.29001574726254E-06,-47.9063568115234
1.29501580829844E-06,-47.8969345092773
1.30001586933434E-06,-47.8795051574707
1.30501593037024E-06,-47.8536567687988
1.31001599140614E-06,-47.8189811706543
1.31501605244205E-06,-47.775074005127
1.32001611347795E-06,-47.7215232849121
1.32501617451385E-06,-47.6579208374023
1.33001623554975E-06,-47.5657081604004
1.33501629658565E-06,-47.432788848877
1.34001635762155E-06,-47.2684745788574
1.34501641865745E-06,-47.0820732116699
1.35001647969336E-06,-46.8828926086426
1.35501654072926E-06,-46.6802368164063
1.36001660176516E-06,-46.4834175109863
1.36501666280106E-06,-46.3017349243164
1.37001672383696E-06,-46.1445007324219
1.37501678487286E-06,-46.0210227966309
1.38001684590876E-06,-45.9406089782715
1.38501690694466E-06,-45.9125595092773
1.39001696798057E-06,-45.9461898803711
1.39501702901647E-06,-46.0527038574219
1.40001709005237E-06,-46.2375793457031
1.40501715108827E-06,-46.4893798828125
1.41001721212417E-06,-46.7957916259766
1.41501727316007E-06,-47.1445007324219
1.42001733419597E-06,-47.523193359375
1.42501739523188E-06,-47.9195594787598
1.43001745626778E-06,-48.3212814331055
1.43501751730368E-06,-48.7160491943359
1.44001757833958E-06,-49.0915489196777
1.44501763937548E-06,-49.4354629516602
1.45001770041138E-06,-49.7354850769043
1.45501776144728E-06,-49.9792938232422
1.46001782248318E-06,-50.1575965881348
1.46501788351909E-06,-50.3010406494141
1.47001794455499E-06,-50.4211692810059
1.47501800559089E-06,-50.5183982849121
1.48001806662679E-06,-50.5931549072266
1.48501812766269E-06,-50.6458587646484
1.49001818869859E-06,-50.676929473877
1.49501824973449E-06,-50.6867942810059
1.5000183107704E-06,-50.6758766174316
1.5050183718063E-06,-50.6445922851563
1.5100184328422E-06,-50.5933685302734
1.5150184938781E-06,-50.5226249694824
1.520018554914E-06,-50.4327850341797
1.5250186159499E-06,-50.3242721557617
1.5300186769858E-06,-50.1796607971191
1.5350187380217E-06,-49.9867095947266
1.54001879905761E-06,-49.753604888916
1.54501886009351E-06,-49.4885444641113
1.55001892112941E-06,-49.1997108459473
1.55501898216531E-06,-48.8953018188477
1.56001904320121E-06,-48.5835037231445
1.56501910423711E-06,-48.2725105285645
1.57001916527301E-06,-47.9705123901367
1.57501922630891E-06,-47.6856994628906
1.58001928734482E-06,-47.4262657165527
1.58501934838072E-06,-47.2003974914551
1.59001940941662E-06,-47.0162887573242
1.59501947045252E-06,-46.8817024230957
1.60001953148842E-06,-46.7956924438477
1.60501959252432E-06,-46.7498512268066
1.61001965356022E-06,-46.7355842590332
1.61501971459613E-06,-46.7442817687988
1.62001977563203E-06,-46.7673416137695
1.62501983666793E-06,-46.7961616516113
1.63001989770383E-06,-46.8221435546875
1.63501995873973E-06,-46.8366775512695
1.64002001977563E-06,-46.8311653137207
1.64502008081153E-06,-46.7970008850098
1.65002014184743E-06,-46.7255821228027
1.65502020288334E-06,-46.6083068847656
1.66002026391924E-06,-46.4381561279297
1.66502032495514E-06,-46.2304191589355
1.67002038599104E-06,-45.9930763244629
1.67502044702694E-06,-45.728588104248
1.68002050806284E-06,-45.4394073486328
1.68502056909874E-06,-45.1279945373535
1.69002063013465E-06,-44.7968063354492
1.69502069117055E-06,-44.448299407959
1.70002075220645E-06,-44.0849342346191
1.70502081324235E-06,-43.7091636657715
1.71002087427825E-06,-43.3234481811523
1.71502093531415E-06,-42.9302406311035
1.72002099635005E-06,-42.5320091247559
1.72502105738595E-06,-42.1311988830566
1.73002111842186E-06,-41.7135581970215
1.73502117945776E-06,-41.2667045593262
1.74002124049366E-06,-40.7959136962891
1.74502130152956E-06,-40.3064613342285
1.75002136256546E-06,-39.8036308288574
1.75502142360136E-06,-39.2926902770996
1.76002148463726E-06,-38.7789192199707
1.76502154567316E-06,-38.2675971984863
1.77002160670907E-06,-37.7639999389648
1.77502166774497E-06,-37.2734031677246
1.78002172878087E-06,-36.801082611084
1.78502178981677E-06,-36.3523139953613
1.79002185085267E-06,-35.9323806762695
1.79502191188857E-06,-35.5393829345703
1.80002197292447E-06,-35.1536827087402
1.80502203396038E-06,-34.7753601074219
1.81002209499628E-06,-34.4062347412109
1.81502215603218E-06,-34.0481147766113
1.82002221706808E-06,-33.702808380127
1.82502227810398E-06,-33.3721351623535
1.83002233913988E-06,-33.0578994750977
1.83502240017578E-06,-32.7619209289551
1.84002246121168E-06,-32.4860038757324
1.84502252224759E-06,-32.2319641113281
1.85002258328349E-06,-32.0016136169434
1.85502264431939E-06,-31.7967624664307
1.86002270535529E-06,-31.6185894012451
1.86502276639119E-06,-31.4603023529053
1.87002282742709E-06,-31.3201789855957
1.87502288846299E-06,-31.1989555358887
1.8800229494989E-06,-31.0973777770996
1.8850230105348E-06,-31.0161838531494
1.8900230715707E-06,-30.9561176300049
1.8950231326066E-06,-30.9179191589355
1.9000231936425E-06,-30.9023303985596
1.9050232546784E-06,-30.9100914001465
1.9100233157143E-06,-30.9419422149658
1.9150233767502E-06,-30.998628616333
1.92002343778611E-06,-31.0808887481689
1.92502349882201E-06,-31.1894645690918
1.93002355985791E-06,-31.3242454528809
1.93502362089381E-06,-31.4843254089355
1.94002368192971E-06,-31.6692600250244
1.94502374296561E-06,-31.8786010742188
1.95002380400151E-06,-32.1119041442871
1.95502386503741E-06,-32.3687171936035
1.96002392607332E-06,-32.6486015319824
1.96502398710922E-06,-32.9511070251465
1.97002404814512E-06,-33.2757873535156
1.97502410918102E-06,-33.6221961975098
1.98002417021692E-06,-33.9898872375488
1.98502423125282E-06,-34.3784141540527
1.99002429228872E-06,-34.7873268127441
1.99502435332463E-06,-35.2255020141602
2.00002441436053E-06,-35.7186050415039
2.00502447539643E-06,-36.259693145752
2.01002453643233E-06,-36.8393325805664
2.01502459746823E-06,-37.4480895996094
2.02002465850413E-06,-38.076530456543
2.02502471954003E-06,-38.7152137756348
2.03002478057593E-06,-39.3547096252441
2.03502484161184E-06,-39.9855804443359
2.04002490264774E-06,-40.598388671875
2.04502496368364E-06,-41.1837005615234
2.05002502471954E-06,-41.7320823669434
2.05502508575544E-06,-42.2340965270996
2.06002514679134E-06,-42.6829872131348
2.06502520782724E-06,-43.1065902709961
2.07002526886315E-06,-43.5137977600098
2.07502532989905E-06,-43.9034004211426
2.08002539093495E-06,-44.2741928100586
2.08502545197085E-06,-44.6249618530273
2.09002551300675E-06,-44.9544982910156
2.09502557404265E-06,-45.2615928649902
2.10002563507855E-06,-45.5450325012207
2.10502569611445E-06,-45.8036079406738
2.11002575715036E-06,-46.0361099243164
2.11502581818626E-06,-46.241325378418
2.12002587922216E-06,-46.4180526733398
2.12502594025806E-06,-46.565071105957
2.13002600129396E-06,-46.6596260070801
2.13502606232986E-06,-46.6876792907715
2.14002612336576E-06,-46.6611289978027
2.14502618440166E-06,-46.5918655395508
2.15002624543757E-06,-46.4917831420898
2.15502630647347E-06,-46.3727684020996
2.16002636750937E-06,-46.2467155456543
2.16502642854527E-06,-46.1255226135254
2.17002648958117E-06,-46.0210723876953
2.17502655061707E-06,-45.9452629089355
2.18002661165297E-06,-45.909984588623
2.18502667268888E-06,-45.9271278381348
2.19002673372478E-06,-46.0085868835449
2.19502679476068E-06,-46.1639137268066
2.20002685579658E-06,-46.386962890625
2.20502691683248E-06,-46.6669158935547
2.21002697786838E-06,-46.9931221008301
2.21502703890428E-06,-47.3549308776855
2.22002709994018E-06,-47.7416915893555
2.22502716097609E-06,-48.142749786377
2.23002722201199E-06,-48.5474586486816
2.23502728304789E-06,-48.9451637268066
2.24002734408379E-06,-49.3252143859863
2.24502740511969E-06,-49.6769561767578
2.25002746615559E-06,-49.98974609375
2.25502752719149E-06,-50.2529258728027
2.2600275882274E-06,-50.4585075378418
2.2650276492633E-06,-50.6336097717285
2.2700277102992E-06,-50.788215637207
2.2750277713351E-06,-50.9224815368652
2.280027832371E-06,-51.0365600585938
2.2850278934069E-06,-51.1305961608887
2.2900279544428E-06,-51.2047500610352
2.2950280154787E-06,-51.2591667175293
2.30002807651461E-06,-51.294002532959
2.30502813755051E-06,-51.3094062805176
2.31002819858641E-06,-51.3055305480957
2.31502825962231E-06,-51.2825241088867
2.32002832065821E-06,-51.2405433654785
2.32502838169411E-06,-51.1797370910645
2.33002844273001E-06,-51.0652084350586
2.33502850376592E-06,-50.8732070922852
2.34002856480182E-06,-50.6206130981445
2.34502862583772E-06,-50.324291229248
2.35002868687362E-06,-50.0011253356934
2.35502874790952E-06,-49.6679878234863
2.36002880894542E-06,-49.3417510986328
2.36502886998132E-06,-49.0392913818359
2.37002893101722E-06,-48.7774848937988
2.37502899205313E-06,-48.5732040405273
2.38002905308903E-06,-48.4433288574219
2.38502911412493E-06,-48.404727935791
2.39002917516083E-06,-48.4742774963379
2.39502923619673E-06,-48.6765975952148
2.40002929723263E-06,-49.0334510803223
2.40502935826853E-06,-49.5206871032715
2.41002941930443E-06,-50.111400604248
2.41502948034034E-06,-50.7786865234375
2.42002954137624E-06,-51.4956474304199
2.42502960241214E-06,-52.2353820800781
2.43002966344804E-06,-52.9709854125977
2.43502972448394E-06,-53.6755599975586
2.44002978551984E-06,-54.3221969604492
2.44502984655574E-06,-54.8839988708496
2.45002990759165E-06,-55.3340644836426
2.45502996862755E-06,-55.6454925537109
2.46003002966345E-06,-55.7947082519531
2.46503009069935E-06,-55.8103790283203
