Trace
Swept SA
A.19.55,N9020B
508 AB2 B25 B40 B85 DP2 DP4 EP2 FS1 FS2 MPB RTL ,01
Segment,0
Number of Points,81920
Sweep Time,0.0004096
Start Frequency,2400000000
Stop Frequency,2400000000
Average Count,0
Average Type,LogPower(Video)
RBW,3000000
RBW Filter,Gaussian
RBW Filter BW,3dB
VBW,3000000
Sweep Type,Swept
X Axis Scale,Lin
PreAmp State,Off
PreAmp Band,Low
Trigger Source,Ext1
Trigger Level,1.2
Trigger Slope,Positive
Trigger Delay,1E-06
Phase Noise Optimization,Fast
Swept If Gain,Low
FFT If Gain,Autorange
RF Coupling,AC
FFT Width,411900
Ext Ref,10000000
Input,RF
RF Calibrator,Off
Attenuation,6
Ref Level Offset,0
External Gain,0
Trace Type,Clearwrite
Detector,Normal
Trace Math,Off
Trace Math Oper1,Trace5
Trace Math Oper2,Trace6
Trace Math Offset,0
Normalize,Off
Trace Name,Trace1
X Axis Units,s
Y Axis Units,dBm
DATA
0,-81.2693786621094
5.00006103590132E-09,-81.612678527832
1.00001220718026E-08,-81.9215316772461
1.50001831077039E-08,-82.1968688964844
2.00002441436053E-08,-82.4396362304688
2.50003051795066E-08,-82.6507568359375
3.00003662154079E-08,-82.8311920166016
3.50004272513092E-08,-82.9818572998047
4.00004882872105E-08,-83.1036987304688
4.50005493231118E-08,-83.1976547241211
5.00006103590132E-08,-83.2646636962891
5.50006713949145E-08,-83.3056564331055
6.00007324308158E-08,-83.318229675293
6.50007934667171E-08,-83.2633361816406
7.00008545026184E-08,-83.1396102905273
7.50009155385197E-08,-82.9599838256836
8.00009765744211E-08,-82.7373809814453
8.50010376103224E-08,-82.4847259521484
9.00010986462237E-08,-82.2149429321289
9.5001159682125E-08,-81.9409561157227
1.00001220718026E-07,-81.6756973266602
1.05001281753928E-07,-81.4320907592773
1.10001342789829E-07,-81.2230606079102
1.1500140382573E-07,-81.0615234375
1.20001464861632E-07,-80.9604187011719
1.25001525897533E-07,-80.9326629638672
1.30001586933434E-07,-80.9848556518555
1.35001647969336E-07,-81.1070022583008
1.40001709005237E-07,-81.2871780395508
1.45001770041138E-07,-81.513427734375
1.50001831077039E-07,-81.7738189697266
1.55001892112941E-07,-82.0564041137695
1.60001953148842E-07,-82.3492431640625
1.65002014184743E-07,-82.6404037475586
1.70002075220645E-07,-82.9179306030273
1.75002136256546E-07,-83.1698913574219
1.80002197292447E-07,-83.3843383789063
1.85002258328349E-07,-83.5493392944336
1.9000231936425E-07,-83.6529388427734
1.95002380400151E-07,-83.6921310424805
2.00002441436053E-07,-83.6911926269531
2.05002502471954E-07,-83.6557464599609
2.10002563507855E-07,-83.5895004272461
2.15002624543757E-07,-83.4961395263672
2.20002685579658E-07,-83.3793563842773
2.25002746615559E-07,-83.2428436279297
2.30002807651461E-07,-83.0902938842773
2.35002868687362E-07,-82.925407409668
2.40002929723263E-07,-82.7518615722656
2.45002990759165E-07,-82.5733642578125
2.50003051795066E-07,-82.3936004638672
2.55003112830967E-07,-82.2162628173828
2.60003173866868E-07,-82.0424423217773
2.6500323490277E-07,-81.8428955078125
2.70003295938671E-07,-81.6139144897461
2.75003356974572E-07,-81.3624420166016
2.80003418010474E-07,-81.0954132080078
2.85003479046375E-07,-80.8197860717773
2.90003540082276E-07,-80.5425033569336
2.95003601118178E-07,-80.2705154418945
3.00003662154079E-07,-80.0107650756836
3.0500372318998E-07,-79.7701950073242
3.10003784225882E-07,-79.5557556152344
3.15003845261783E-07,-79.3743896484375
3.20003906297684E-07,-79.2330551147461
3.25003967333586E-07,-79.1386795043945
3.30004028369487E-07,-79.0647659301758
3.35004089405388E-07,-78.9856262207031
3.4000415044129E-07,-78.9094772338867
3.45004211477191E-07,-78.8445129394531
3.50004272513092E-07,-78.7989501953125
3.55004333548993E-07,-78.7809829711914
3.60004394584895E-07,-78.798828125
3.65004455620796E-07,-78.8606796264648
3.70004516656697E-07,-78.9747543334961
3.75004577692599E-07,-79.1492614746094
3.800046387285E-07,-79.3923873901367
3.85004699764401E-07,-79.7123565673828
3.90004760800303E-07,-80.1173706054688
3.95004821836204E-07,-80.6308517456055
4.00004882872105E-07,-81.2949829101563
4.05004943908007E-07,-82.0888900756836
4.10005004943908E-07,-82.9872894287109
4.15005065979809E-07,-83.9648666381836
4.20005127015711E-07,-84.996337890625
4.25005188051612E-07,-86.0564117431641
4.30005249087513E-07,-87.1197814941406
4.35005310123415E-07,-88.1611557006836
4.40005371159316E-07,-89.1552429199219
4.45005432195217E-07,-90.0767440795898
4.50005493231119E-07,-90.9003601074219
4.5500555426702E-07,-91.6008071899414
4.60005615302921E-07,-92.1585464477539
4.65005676338822E-07,-92.6315765380859
4.70005737374724E-07,-93.0435333251953
4.75005798410625E-07,-93.3970489501953
4.80005859446526E-07,-93.6947326660156
4.85005920482428E-07,-93.9392166137695
4.90005981518329E-07,-94.1331176757813
4.9500604255423E-07,-94.2790679931641
5.00006103590132E-07,-94.3796768188477
5.05006164626033E-07,-94.4375762939453
5.10006225661934E-07,-94.4553909301758
5.15006286697836E-07,-94.4357452392578
5.20006347733737E-07,-94.3812561035156
5.25006408769638E-07,-94.2945404052734
5.3000646980554E-07,-94.1607971191406
5.35006530841441E-07,-93.9670791625977
5.40006591877342E-07,-93.7188110351563
5.45006652913243E-07,-93.4214477539063
5.50006713949145E-07,-93.0804061889648
5.55006774985046E-07,-92.7011337280273
5.60006836020948E-07,-92.2890701293945
5.65006897056849E-07,-91.8496398925781
5.7000695809275E-07,-91.3882827758789
5.75007019128651E-07,-90.9104385375977
5.80007080164553E-07,-90.4215316772461
5.85007141200454E-07,-89.9270172119141
5.90007202236355E-07,-89.4323120117188
5.95007263272257E-07,-88.9283142089844
6.00007324308158E-07,-88.3750534057617
6.05007385344059E-07,-87.7783203125
6.10007446379961E-07,-87.1476058959961
6.15007507415862E-07,-86.4924087524414
6.20007568451763E-07,-85.8222274780273
6.25007629487665E-07,-85.1465606689453
6.30007690523566E-07,-84.4749069213867
6.35007751559467E-07,-83.8167572021484
6.40007812595369E-07,-83.1816253662109
6.4500787363127E-07,-82.578987121582
6.50007934667171E-07,-82.0183639526367
6.55007995703072E-07,-81.5092315673828
6.60008056738974E-07,-81.0589141845703
6.65008117774875E-07,-80.6453247070313
6.70008178810776E-07,-80.2595901489258
6.75008239846678E-07,-79.9008255004883
6.80008300882579E-07,-79.5681610107422
6.8500836191848E-07,-79.2607116699219
6.90008422954382E-07,-78.9776000976563
6.95008483990283E-07,-78.7179412841797
7.00008545026184E-07,-78.4808654785156
7.05008606062086E-07,-78.2654876708984
7.10008667097987E-07,-78.070930480957
7.15008728133888E-07,-77.8963165283203
7.2000878916979E-07,-77.7407684326172
7.25008850205691E-07,-77.603401184082
7.30008911241592E-07,-77.4899749755859
7.35008972277494E-07,-77.4053802490234
7.40009033313395E-07,-77.3473892211914
7.45009094349296E-07,-77.3138046264648
7.50009155385198E-07,-77.3024139404297
7.55009216421099E-07,-77.3110046386719
7.60009277457E-07,-77.3373718261719
7.65009338492901E-07,-77.3793029785156
7.70009399528803E-07,-77.4345932006836
7.75009460564704E-07,-77.5010299682617
7.80009521600605E-07,-77.5764083862305
7.85009582636507E-07,-77.6585159301758
7.90009643672408E-07,-77.7451400756836
7.95009704708309E-07,-77.838020324707
8.00009765744211E-07,-77.9479751586914
8.05009826780112E-07,-78.07421875
8.10009887816013E-07,-78.2149810791016
8.15009948851915E-07,-78.3685150146484
8.20010009887816E-07,-78.5330429077148
8.25010070923717E-07,-78.7068176269531
8.30010131959619E-07,-78.8880615234375
8.3501019299552E-07,-79.0750350952148
8.40010254031421E-07,-79.2659530639648
8.45010315067323E-07,-79.4590682983398
8.50010376103224E-07,-79.6526107788086
8.55010437139125E-07,-79.8448333740234
8.60010498175026E-07,-80.0348968505859
8.65010559210928E-07,-80.2332458496094
8.70010620246829E-07,-80.4416046142578
8.7501068128273E-07,-80.6578903198242
8.80010742318632E-07,-80.8800506591797
8.85010803354533E-07,-81.1060028076172
8.90010864390434E-07,-81.3336715698242
8.95010925426336E-07,-81.5609970092773
9.00010986462237E-07,-81.7859039306641
9.05011047498138E-07,-82.0063095092773
9.1001110853404E-07,-82.2201614379883
9.15011169569941E-07,-82.4253692626953
9.20011230605842E-07,-82.6198806762695
9.25011291641744E-07,-82.8016052246094
9.30011352677645E-07,-82.9821701049805
9.35011413713546E-07,-83.1717224121094
9.40011474749448E-07,-83.3660202026367
9.45011535785349E-07,-83.5608062744141
9.5001159682125E-07,-83.7518463134766
9.55011657857151E-07,-83.9348754882813
9.60011718893053E-07,-84.1056594848633
9.65011779928954E-07,-84.2599411010742
9.70011840964855E-07,-84.3934631347656
9.75011902000757E-07,-84.5019989013672
9.80011963036658E-07,-84.5812759399414
9.85012024072559E-07,-84.6270599365234
9.90012085108461E-07,-84.6351013183594
9.95012146144362E-07,-84.6005706787109
1.00001220718026E-06,-84.5217895507813
1.00501226821616E-06,-84.4037399291992
1.01001232925207E-06,-84.2517242431641
1.01501239028797E-06,-84.0710601806641
1.02001245132387E-06,-83.8670501708984
1.02501251235977E-06,-83.6449890136719
1.03001257339567E-06,-83.4102020263672
1.03501263443157E-06,-83.1679840087891
1.04001269546747E-06,-82.9236450195313
1.04501275650338E-06,-82.682487487793
1.05001281753928E-06,-82.449821472168
1.05501287857518E-06,-82.23095703125
1.06001293961108E-06,-82.0292510986328
1.06501300064698E-06,-81.8239212036133
1.07001306168288E-06,-81.6098937988281
1.07501312271878E-06,-81.3896560668945
1.08001318375468E-06,-81.1657104492188
1.08501324479059E-06,-80.940544128418
1.09001330582649E-06,-80.7166442871094
1.09501336686239E-06,-80.4965209960938
1.10001342789829E-06,-80.2826538085938
1.10501348893419E-06,-80.0775375366211
1.11001354997009E-06,-79.883659362793
1.11501361100599E-06,-79.7035293579102
1.1200136720419E-06,-79.5396194458008
1.1250137330778E-06,-79.3944396972656
1.1300137941137E-06,-79.2631912231445
1.1350138551496E-06,-79.1398468017578
1.1400139161855E-06,-79.0250549316406
1.1450139772214E-06,-78.9194641113281
1.1500140382573E-06,-78.8237228393555
1.1550140992932E-06,-78.7384796142578
1.16001416032911E-06,-78.6643753051758
1.16501422136501E-06,-78.6020660400391
1.17001428240091E-06,-78.5521926879883
1.17501434343681E-06,-78.5154113769531
1.18001440447271E-06,-78.4923553466797
1.18501446550861E-06,-78.4836883544922
1.19001452654451E-06,-78.4900436401367
1.19501458758041E-06,-78.5089950561523
1.20001464861632E-06,-78.5320587158203
1.20501470965222E-06,-78.5609970092773
1.21001477068812E-06,-78.598388671875
1.21501483172402E-06,-78.6467895507813
1.22001489275992E-06,-78.7087783813477
1.22501495379582E-06,-78.7869262695313
1.23001501483172E-06,-78.8837890625
1.23501507586763E-06,-79.0019454956055
1.24001513690353E-06,-79.1439666748047
1.24501519793943E-06,-79.3124160766602
1.25001525897533E-06,-79.5098648071289
1.25501532001123E-06,-79.738883972168
1.26001538104713E-06,-80.0035934448242
1.26501544208303E-06,-80.3233108520508
1.27001550311893E-06,-80.6959686279297
1.27501556415484E-06,-81.1124038696289
1.28001562519074E-06,-81.5634536743164
1.28501568622664E-06,-82.0399551391602
1.29001574726254E-06,-82.5327377319336
1.29501580829844E-06,-83.0326461791992
1.30001586933434E-06,-83.530517578125
1.30501593037024E-06,-84.0171890258789
1.31001599140614E-06,-84.4834976196289
1.31501605244205E-06,-84.9202728271484
1.32001611347795E-06,-85.318359375
1.32501617451385E-06,-85.6685943603516
1.33001623554975E-06,-85.9904022216797
1.33501629658565E-06,-86.3071365356445
1.34001635762155E-06,-86.6155548095703
1.34501641865745E-06,-86.9123840332031
1.35001647969336E-06,-87.1943740844727
1.35501654072926E-06,-87.4582595825195
1.36001660176516E-06,-87.7007827758789
1.36501666280106E-06,-87.9186782836914
1.37001672383696E-06,-88.1087036132813
1.37501678487286E-06,-88.267578125
1.38001684590876E-06,-88.3920593261719
1.38501690694466E-06,-88.4788818359375
1.39001696798057E-06,-88.524787902832
1.39501702901647E-06,-88.5204772949219
1.40001709005237E-06,-88.44921875
1.40501715108827E-06,-88.3192825317383
1.41001721212417E-06,-88.1407318115234
1.41501727316007E-06,-87.923583984375
1.42001733419597E-06,-87.6778945922852
1.42501739523188E-06,-87.4136962890625
1.43001745626778E-06,-87.1410369873047
1.43501751730368E-06,-86.8699493408203
1.44001757833958E-06,-86.6104736328125
1.44501763937548E-06,-86.3726501464844
1.45001770041138E-06,-86.1665191650391
1.45501776144728E-06,-86.0021286010742
1.46001782248318E-06,-85.8893814086914
1.46501788351909E-06,-85.8306732177734
1.47001794455499E-06,-85.8169631958008
1.47501800559089E-06,-85.8382415771484
1.48001806662679E-06,-85.8844909667969
1.48501812766269E-06,-85.9456939697266
1.49001818869859E-06,-86.0118408203125
1.49501824973449E-06,-86.0729217529297
1.5000183107704E-06,-86.1189193725586
1.5050183718063E-06,-86.1398239135742
1.5100184328422E-06,-86.125617980957
1.5150184938781E-06,-86.066291809082
1.520018554914E-06,-85.9518280029297
1.5250186159499E-06,-85.772216796875
1.5300186769858E-06,-85.5295181274414
1.5350187380217E-06,-85.2363052368164
1.54001879905761E-06,-84.8983383178711
1.54501886009351E-06,-84.5213851928711
1.55001892112941E-06,-84.1112213134766
1.55501898216531E-06,-83.6735916137695
1.56001904320121E-06,-83.2142791748047
1.56501910423711E-06,-82.7390365600586
1.57001916527301E-06,-82.2536392211914
1.57501922630891E-06,-81.7638397216797
1.58001928734482E-06,-81.2754135131836
1.58501934838072E-06,-80.7941284179688
1.59001940941662E-06,-80.3257369995117
1.59501947045252E-06,-79.8672409057617
1.60001953148842E-06,-79.3945999145508
1.60501959252432E-06,-78.9086532592773
1.61001965356022E-06,-78.4123764038086
1.61501971459613E-06,-77.9087448120117
1.62001977563203E-06,-77.4007415771484
1.62501983666793E-06,-76.8913345336914
1.63001989770383E-06,-76.3835220336914
1.63501995873973E-06,-75.8802642822266
1.64002001977563E-06,-75.3845520019531
1.64502008081153E-06,-74.8993530273438
1.65002014184743E-06,-74.4276580810547
1.65502020288334E-06,-73.9724349975586
1.66002026391924E-06,-73.5356292724609
1.66502032495514E-06,-73.1062088012695
1.67002038599104E-06,-72.6813354492188
1.67502044702694E-06,-72.2621917724609
1.68002050806284E-06,-71.8499450683594
1.68502056909874E-06,-71.4457702636719
1.69002063013465E-06,-71.0508346557617
1.69502069117055E-06,-70.6663208007813
1.70002075220645E-06,-70.2934036254883
1.70502081324235E-06,-69.9332504272461
1.71002087427825E-06,-69.587043762207
1.71502093531415E-06,-69.2559432983398
1.72002099635005E-06,-68.9411315917969
1.72502105738595E-06,-68.6437911987305
1.73002111842186E-06,-68.3606338500977
1.73502117945776E-06,-68.0881500244141
1.74002124049366E-06,-67.8271331787109
1.74502130152956E-06,-67.5783843994141
1.75002136256546E-06,-67.3426971435547
1.75502142360136E-06,-67.1208724975586
1.76002148463726E-06,-66.9137115478516
1.76502154567316E-06,-66.7220077514648
1.77002160670907E-06,-66.5465621948242
1.77502166774497E-06,-66.3881683349609
1.78002172878087E-06,-66.2476272583008
1.78502178981677E-06,-66.125732421875
1.79002185085267E-06,-66.0232925415039
1.79502191188857E-06,-65.9398345947266
1.80002197292447E-06,-65.8718719482422
1.80502203396038E-06,-65.8195648193359
1.81002209499628E-06,-65.7833862304688
1.81502215603218E-06,-65.7638092041016
1.82002221706808E-06,-65.7613067626953
1.82502227810398E-06,-65.7763442993164
1.83002233913988E-06,-65.8093872070313
1.83502240017578E-06,-65.8609237670898
1.84002246121168E-06,-65.9314041137695
1.84502252224759E-06,-66.0213088989258
1.85002258328349E-06,-66.1311111450195
1.85502264431939E-06,-66.2612838745117
1.86002270535529E-06,-66.4125289916992
1.86502276639119E-06,-66.5878982543945
1.87002282742709E-06,-66.7870025634766
1.87502288846299E-06,-67.0083389282227
1.8800229494989E-06,-67.2504119873047
1.8850230105348E-06,-67.5117034912109
1.8900230715707E-06,-67.7907180786133
1.8950231326066E-06,-68.0859527587891
1.9000231936425E-06,-68.3958969116211
1.9050232546784E-06,-68.7190475463867
1.9100233157143E-06,-69.0539016723633
1.9150233767502E-06,-69.3989639282227
1.92002343778611E-06,-69.7527160644531
1.92502349882201E-06,-70.1136627197266
1.93002355985791E-06,-70.4951324462891
1.93502362089381E-06,-70.9078216552734
1.94002368192971E-06,-71.3462524414063
1.94502374296561E-06,-71.8049621582031
1.95002380400151E-06,-72.2784729003906
1.95502386503741E-06,-72.7613143920898
1.96002392607332E-06,-73.2480239868164
1.96502398710922E-06,-73.7331314086914
1.97002404814512E-06,-74.2111587524414
1.97502410918102E-06,-74.6766357421875
1.98002417021692E-06,-75.1240997314453
1.98502423125282E-06,-75.5480728149414
1.99002429228872E-06,-75.9430923461914
1.99502435332463E-06,-76.3062591552734
2.00002441436053E-06,-76.64453125
2.00502447539643E-06,-76.9616928100586
2.01002453643233E-06,-77.2610549926758
2.01502459746823E-06,-77.5459060668945
2.02002465850413E-06,-77.8195495605469
2.02502471954003E-06,-78.0852890014648
2.03002478057593E-06,-78.3464279174805
2.03502484161184E-06,-78.6062622070313
2.04002490264774E-06,-78.8680953979492
2.04502496368364E-06,-79.1352310180664
2.05002502471954E-06,-79.4109649658203
2.05502508575544E-06,-79.6986083984375
2.06002514679134E-06,-80.0021209716797
2.06502520782724E-06,-80.3307189941406
2.07002526886315E-06,-80.6815338134766
2.07502532989905E-06,-81.0483093261719
2.08002539093495E-06,-81.4247817993164
2.08502545197085E-06,-81.8046722412109
2.09002551300675E-06,-82.1817321777344
2.09502557404265E-06,-82.5496978759766
2.10002563507855E-06,-82.9022903442383
2.10502569611445E-06,-83.233268737793
2.11002575715036E-06,-83.5363464355469
2.11502581818626E-06,-83.8052825927734
2.12002587922216E-06,-84.0337905883789
2.12502594025806E-06,-84.2156219482422
2.13002600129396E-06,-84.3548049926758
2.13502606232986E-06,-84.461051940918
2.14002612336576E-06,-84.5366363525391
2.14502618440166E-06,-84.5838317871094
2.15002624543757E-06,-84.6049194335938
2.15502630647347E-06,-84.6021575927734
2.16002636750937E-06,-84.5778198242188
2.16502642854527E-06,-84.5341949462891
2.17002648958117E-06,-84.4735336303711
2.17502655061707E-06,-84.3981246948242
2.18002661165297E-06,-84.3102340698242
2.18502667268888E-06,-84.2121276855469
2.19002673372478E-06,-84.106086730957
2.19502679476068E-06,-83.9858932495117
2.20002685579658E-06,-83.8281936645508
2.20502691683248E-06,-83.6373138427734
2.21002697786838E-06,-83.4198150634766
2.21502703890428E-06,-83.1822128295898
2.22002709994018E-06,-82.9310684204102
2.22502716097609E-06,-82.6728973388672
2.23002722201199E-06,-82.4142608642578
2.23502728304789E-06,-82.1616821289063
2.24002734408379E-06,-81.9217071533203
2.24502740511969E-06,-81.7008743286133
2.25002746615559E-06,-81.5057220458984
2.25502752719149E-06,-81.3427886962891
2.2600275882274E-06,-81.2172698974609
2.2650276492633E-06,-81.1158447265625
2.2700277102992E-06,-81.0324325561523
2.2750277713351E-06,-80.9657669067383
2.280027832371E-06,-80.9145584106445
2.2850278934069E-06,-80.877555847168
2.2900279544428E-06,-80.8534698486328
2.2950280154787E-06,-80.8410491943359
2.30002807651461E-06,-80.8390045166016
2.30502813755051E-06,-80.8460693359375
2.31002819858641E-06,-80.8609771728516
2.31502825962231E-06,-80.8824462890625
2.32002832065821E-06,-80.9092178344727
2.32502838169411E-06,-80.9400100708008
2.33002844273001E-06,-80.9870529174805
2.33502850376592E-06,-81.0600204467773
2.34002856480182E-06,-81.1538314819336
2.34502862583772E-06,-81.2633895874023
2.35002868687362E-06,-81.3836135864258
2.35502874790952E-06,-81.5094223022461
2.36002880894542E-06,-81.6357116699219
2.36502886998132E-06,-81.7574157714844
2.37002893101722E-06,-81.8694305419922
2.37502899205313E-06,-81.9666748046875
2.38002905308903E-06,-82.0440673828125
2.38502911412493E-06,-82.0965118408203
2.39002917516083E-06,-82.1189270019531
2.39502923619673E-06,-82.110710144043
2.40002929723263E-06,-82.084098815918
2.40502935826853E-06,-82.0409317016602
2.41002941930443E-06,-81.9820709228516
2.41502948034034E-06,-81.9083480834961
2.42002954137624E-06,-81.8206024169922
2.42502960241214E-06,-81.7196884155273
2.43002966344804E-06,-81.6064376831055
2.43502972448394E-06,-81.4817047119141
2.44002978551984E-06,-81.346321105957
2.44502984655574E-06,-81.2011337280273
2.45002990759165E-06,-81.0469818115234
2.45502996862755E-06,-80.8847198486328
2.46003002966345E-06,-80.7141418457031
2.46503009069935E-06,-80.5233612060547
2.47003015173525E-06,-80.3114700317383
