Trace
Swept SA
A.19.55,N9020B
508 AB2 B25 B40 B85 DP2 DP4 EP2 FS1 FS2 MPB RTL ,01
Segment,0
Number of Points,81920
Sweep Time,0.000452266667
Start Frequency,2400000000
Stop Frequency,2400000000
Average Count,0
Average Type,LogPower(Video)
RBW,3000000
RBW Filter,Gaussian
RBW Filter BW,3dB
VBW,3000000
Sweep Type,Swept
X Axis Scale,Lin
PreAmp State,Off
PreAmp Band,Low
Trigger Source,Ext1
Trigger Level,1.2
Trigger Slope,Positive
Trigger Delay,1E-06
Phase Noise Optimization,Fast
Swept If Gain,Low
FFT If Gain,Autorange
RF Coupling,AC
FFT Width,411900
Ext Ref,10000000
Input,RF
RF Calibrator,Off
Attenuation,6
Ref Level Offset,0
External Gain,0
Trace Type,Clearwrite
Detector,Normal
Trace Math,Off
Trace Math Oper1,Trace5
Trace Math Oper2,Trace6
Trace Math Offset,0
Normalize,Off
Trace Name,Trace1
X Axis Units,s
Y Axis Units,dBm
DATA
0,-84.0454635620117
5.5209007312101E-09,-84.285758972168
1.10418014624202E-08,-84.4993667602539
1.65627021936303E-08,-84.6949920654297
2.20836029248404E-08,-84.8813095092773
2.76045036560505E-08,-85.067024230957
3.31254043872606E-08,-85.2608261108398
3.86463051184707E-08,-85.4713897705078
4.41672058496808E-08,-85.7074279785156
4.96881065808909E-08,-85.9776229858398
5.5209007312101E-08,-86.2906646728516
6.07299080433111E-08,-86.6602325439453
6.62508087745212E-08,-87.0909576416016
7.17717095057313E-08,-87.5693740844727
7.72926102369414E-08,-88.081787109375
8.28135109681515E-08,-88.6144714355469
8.83344116993616E-08,-89.1537322998047
9.38553124305717E-08,-89.6858673095703
9.93762131617818E-08,-90.1971588134766
1.04897113892992E-07,-90.6739044189453
1.10418014624202E-07,-91.102409362793
1.15938915355412E-07,-91.4689483642578
1.21459816086622E-07,-91.7598342895508
1.26980716817832E-07,-91.9806671142578
1.32501617549042E-07,-92.1676940917969
1.38022518280252E-07,-92.3209228515625
1.43543419011463E-07,-92.4387969970703
1.49064319742673E-07,-92.5197601318359
1.54585220473883E-07,-92.5622482299805
1.60106121205093E-07,-92.5647277832031
1.65627021936303E-07,-92.5256271362305
1.71147922667513E-07,-92.4434051513672
1.76668823398723E-07,-92.3165054321289
1.82189724129933E-07,-92.1433639526367
1.87710624861143E-07,-91.9224319458008
1.93231525592353E-07,-91.639404296875
1.98752426323564E-07,-91.2636947631836
2.04273327054774E-07,-90.808235168457
2.09794227785984E-07,-90.28857421875
2.15315128517194E-07,-89.7202682495117
2.20836029248404E-07,-89.1188735961914
2.26356929979614E-07,-88.4999465942383
2.31877830710824E-07,-87.8790512084961
2.37398731442034E-07,-87.2717361450195
2.42919632173244E-07,-86.6935577392578
2.48440532904454E-07,-86.1600723266602
2.53961433635664E-07,-85.6868438720703
2.59482334366875E-07,-85.2766418457031
2.65003235098085E-07,-84.8897552490234
2.70524135829295E-07,-84.5218658447266
2.76045036560505E-07,-84.1730041503906
2.81565937291715E-07,-83.8431930541992
2.87086838022925E-07,-83.5324630737305
2.92607738754135E-07,-83.2408294677734
2.98128639485345E-07,-82.9683227539063
3.03649540216555E-07,-82.7149658203125
3.09170440947765E-07,-82.4807739257813
3.14691341678976E-07,-82.2657775878906
3.20212242410186E-07,-82.0699996948242
3.25733143141396E-07,-81.8946075439453
3.31254043872606E-07,-81.744514465332
3.36774944603816E-07,-81.6185684204102
3.42295845335026E-07,-81.5147476196289
3.47816746066236E-07,-81.4310455322266
3.53337646797446E-07,-81.3654479980469
3.58858547528656E-07,-81.3159484863281
3.64379448259866E-07,-81.2805404663086
3.69900348991077E-07,-81.2572021484375
3.75421249722287E-07,-81.2439270019531
3.80942150453497E-07,-81.2387084960938
3.86463051184707E-07,-81.2395248413086
3.91983951915917E-07,-81.2456665039063
3.97504852647127E-07,-81.2641754150391
4.03025753378337E-07,-81.2958221435547
4.08546654109547E-07,-81.3397750854492
4.14067554840757E-07,-81.3952484130859
4.19588455571967E-07,-81.4614181518555
4.25109356303178E-07,-81.537483215332
4.30630257034388E-07,-81.6226348876953
4.36151157765598E-07,-81.716064453125
4.41672058496808E-07,-81.8169708251953
4.47192959228018E-07,-81.9245376586914
4.52713859959228E-07,-82.0379638671875
4.58234760690438E-07,-82.1551666259766
4.63755661421648E-07,-82.2652816772461
4.69276562152858E-07,-82.3700180053711
4.74797462884068E-07,-82.4744033813477
4.80318363615278E-07,-82.5834426879883
4.85839264346489E-07,-82.7021560668945
4.91360165077699E-07,-82.8355560302734
4.96881065808909E-07,-82.9886627197266
5.02401966540119E-07,-83.1664886474609
5.07922867271329E-07,-83.3740615844727
5.13443768002539E-07,-83.6163787841797
5.18964668733749E-07,-83.8984756469727
5.24485569464959E-07,-84.228385925293
5.30006470196169E-07,-84.6461486816406
5.3552737092738E-07,-85.1469650268555
5.4104827165859E-07,-85.7104873657227
5.465691723898E-07,-86.3163452148438
5.5209007312101E-07,-86.9441986083984
5.5761097385222E-07,-87.5736694335938
5.6313187458343E-07,-88.1844177246094
5.6865277531464E-07,-88.7560729980469
5.7417367604585E-07,-89.2682876586914
5.7969457677706E-07,-89.7006988525391
5.8521547750827E-07,-90.0329437255859
5.90736378239481E-07,-90.2462768554688
5.96257278970691E-07,-90.3639984130859
6.01778179701901E-07,-90.4062957763672
6.07299080433111E-07,-90.3808975219727
6.12819981164321E-07,-90.295539855957
6.18340881895531E-07,-90.1579360961914
6.23861782626741E-07,-89.975830078125
6.29382683357951E-07,-89.7569351196289
6.34903584089161E-07,-89.5089797973633
6.40424484820371E-07,-89.2397003173828
6.45945385551581E-07,-88.9568099975586
6.51466286282792E-07,-88.6680450439453
6.56987187014002E-07,-88.3799514770508
6.62508087745212E-07,-88.0488357543945
6.68028988476422E-07,-87.658576965332
6.73549889207632E-07,-87.2218933105469
6.79070789938842E-07,-86.7514953613281
6.84591690670052E-07,-86.2600936889648
6.90112591401262E-07,-85.7604141235352
6.95633492132472E-07,-85.2651672363281
7.01154392863682E-07,-84.7870712280273
7.06675293594893E-07,-84.3388214111328
7.12196194326103E-07,-83.9331588745117
7.17717095057313E-07,-83.5827789306641
7.23237995788523E-07,-83.3001708984375
7.28758896519733E-07,-83.0646438598633
7.34279797250943E-07,-82.8565521240234
7.39800697982153E-07,-82.6762084960938
7.45321598713363E-07,-82.5239181518555
7.50842499444573E-07,-82.3999862670898
7.56363400175783E-07,-82.3047256469727
7.61884300906994E-07,-82.2384490966797
7.67405201638204E-07,-82.2014617919922
7.72926102369414E-07,-82.1940689086914
7.78447003100624E-07,-82.2165908813477
7.83967903831834E-07,-82.2693252563477
7.89488804563044E-07,-82.3526000976563
7.95009705294254E-07,-82.4971008300781
8.00530606025464E-07,-82.7200698852539
8.06051506756674E-07,-83.0052490234375
8.11572407487884E-07,-83.3363800048828
8.17093308219094E-07,-83.6971969604492
8.22614208950305E-07,-84.0714416503906
8.28135109681515E-07,-84.4428482055664
8.33656010412725E-07,-84.7951583862305
8.39176911143935E-07,-85.1121139526367
8.44697811875145E-07,-85.37744140625
8.50218712606355E-07,-85.5748901367188
8.55739613337565E-07,-85.6881942749023
8.61260514068775E-07,-85.7257614135742
8.66781414799985E-07,-85.7148132324219
8.72302315531195E-07,-85.6595153808594
8.77823216262406E-07,-85.5639343261719
8.83344116993616E-07,-85.4321441650391
8.88865017724826E-07,-85.2682266235352
8.94385918456036E-07,-85.0762634277344
8.99906819187246E-07,-84.8603286743164
9.05427719918456E-07,-84.6244964599609
9.10948620649666E-07,-84.3728408813477
9.16469521380876E-07,-84.1094512939453
9.21990422112086E-07,-83.8383941650391
9.27511322843296E-07,-83.5470657348633
9.33032223574507E-07,-83.2141189575195
9.38553124305717E-07,-82.8462982177734
9.44074025036927E-07,-82.4507522583008
9.49594925768137E-07,-82.0346221923828
9.55115826499347E-07,-81.6050491333008
9.60636727230557E-07,-81.1691818237305
9.66157627961767E-07,-80.7341690063477
9.71678528692977E-07,-80.3071517944336
9.77199429424187E-07,-79.8952789306641
9.82720330155397E-07,-79.5056838989258
9.88241230886608E-07,-79.1455307006836
9.93762131617818E-07,-78.8111419677734
9.99283032349028E-07,-78.4835433959961
1.00480393308024E-06,-78.1630249023438
1.01032483381145E-06,-77.8505783081055
1.01584573454266E-06,-77.5471954345703
1.02136663527387E-06,-77.2538757324219
1.02688753600508E-06,-76.9716110229492
1.03240843673629E-06,-76.7014007568359
1.0379293374675E-06,-76.4442367553711
1.04345023819871E-06,-76.2011032104492
1.04897113892992E-06,-75.9730072021484
1.05449203966113E-06,-75.7609405517578
1.06001294039234E-06,-75.5627822875977
1.06553384112355E-06,-75.3715362548828
1.07105474185476E-06,-75.1887817382813
1.07657564258597E-06,-75.0166168212891
1.08209654331718E-06,-74.8571014404297
1.08761744404839E-06,-74.7123336791992
1.0931383447796E-06,-74.5843887329102
1.09865924551081E-06,-74.475341796875
1.10418014624202E-06,-74.3872833251953
1.10970104697323E-06,-74.3222808837891
1.11522194770444E-06,-74.2824325561523
1.12074284843565E-06,-74.2698135375977
1.12626374916686E-06,-74.2802963256836
1.13178464989807E-06,-74.2955780029297
1.13730555062928E-06,-74.3192138671875
1.14282645136049E-06,-74.356803894043
1.1483473520917E-06,-74.4139251708984
1.15386825282291E-06,-74.4961700439453
1.15938915355412E-06,-74.6091156005859
1.16491005428533E-06,-74.7583541870117
1.17043095501654E-06,-74.9494781494141
1.17595185574775E-06,-75.1880569458008
1.18147275647896E-06,-75.4796905517578
1.18699365721017E-06,-75.829963684082
1.19251455794138E-06,-76.2456283569336
1.19803545867259E-06,-76.7321701049805
1.2035563594038E-06,-77.2826690673828
1.20907726013501E-06,-77.8890762329102
1.21459816086622E-06,-78.543327331543
1.22011906159743E-06,-79.2373962402344
1.22563996232864E-06,-79.9632263183594
1.23116086305985E-06,-80.7127685546875
1.23668176379106E-06,-81.4779739379883
1.24220266452227E-06,-82.2508010864258
1.24772356525348E-06,-83.0232009887695
1.25324446598469E-06,-83.7871170043945
1.2587653667159E-06,-84.5474090576172
1.26428626744711E-06,-85.3723297119141
1.26980716817832E-06,-86.2572402954102
1.27532806890953E-06,-87.18310546875
1.28084896964074E-06,-88.1309204101563
1.28636987037195E-06,-89.0816421508789
1.29189077110316E-06,-90.0162582397461
1.29741167183437E-06,-90.9157333374023
1.30293257256558E-06,-91.7610626220703
1.30845347329679E-06,-92.533203125
1.313974374028E-06,-93.2131423950195
1.31949527475921E-06,-93.7818450927734
1.32501617549042E-06,-94.2252426147461
1.33053707622163E-06,-94.5751495361328
1.33605797695284E-06,-94.845588684082
1.34157887768405E-06,-95.0421752929688
1.34709977841526E-06,-95.170524597168
1.35262067914647E-06,-95.2362670898438
1.35814157987768E-06,-95.245002746582
1.36366248060889E-06,-95.2023620605469
1.3691833813401E-06,-95.1139526367188
1.37470428207131E-06,-94.9854049682617
1.38022518280252E-06,-94.8223190307617
1.38574608353373E-06,-94.6303253173828
1.39126698426494E-06,-94.4086990356445
1.39678788499615E-06,-94.0883712768555
1.40230878572736E-06,-93.6663360595703
1.40782968645858E-06,-93.1647491455078
1.41335058718979E-06,-92.6057739257813
1.418871487921E-06,-92.0115814208984
1.42439238865221E-06,-91.4043121337891
1.42991328938342E-06,-90.8061447143555
1.43543419011463E-06,-90.2392272949219
1.44095509084584E-06,-89.7257232666016
1.44647599157705E-06,-89.2877960205078
1.45199689230826E-06,-88.9476089477539
1.45751779303947E-06,-88.7268981933594
1.46303869377068E-06,-88.628173828125
1.46855959450189E-06,-88.6318969726563
1.4740804952331E-06,-88.7179946899414
1.47960139596431E-06,-88.8663711547852
1.48512229669552E-06,-89.0569534301758
1.49064319742673E-06,-89.269660949707
1.49616409815794E-06,-89.4844055175781
1.50168499888915E-06,-89.6811218261719
1.50720589962036E-06,-89.839714050293
1.51272680035157E-06,-89.9401092529297
1.51824770108278E-06,-89.9622268676758
1.52376860181399E-06,-89.8870849609375
1.5292895025452E-06,-89.741096496582
1.53481040327641E-06,-89.5469741821289
1.54033130400762E-06,-89.3097763061523
1.54585220473883E-06,-89.034538269043
1.55137310547004E-06,-88.7263031005859
1.55689400620125E-06,-88.3900985717773
1.56241490693246E-06,-88.0309829711914
1.56793580766367E-06,-87.6539916992188
1.57345670839488E-06,-87.2641677856445
1.57897760912609E-06,-86.8665466308594
1.5844985098573E-06,-86.4661712646484
1.59001941058851E-06,-86.0677795410156
1.59554031131972E-06,-85.6479949951172
1.60106121205093E-06,-85.1946334838867
1.60658211278214E-06,-84.7145614624023
1.61210301351335E-06,-84.2146759033203
1.61762391424456E-06,-83.7018661499023
1.62314481497577E-06,-83.1830139160156
1.62866571570698E-06,-82.6650161743164
1.63418661643819E-06,-82.1547546386719
1.6397075171694E-06,-81.6591262817383
1.64522841790061E-06,-81.1850051879883
1.65074931863182E-06,-80.7392883300781
1.65627021936303E-06,-80.3288345336914
1.66179112009424E-06,-79.9412689208984
1.66731202082545E-06,-79.5631942749023
1.67283292155666E-06,-79.1961669921875
1.67835382228787E-06,-78.8417739868164
1.68387472301908E-06,-78.5016021728516
1.68939562375029E-06,-78.1772155761719
1.6949165244815E-06,-77.8701934814453
1.70043742521271E-06,-77.5821228027344
1.70595832594392E-06,-77.3145751953125
1.71147922667513E-06,-77.0691299438477
1.71700012740634E-06,-76.8473663330078
1.72252102813755E-06,-76.6508560180664
1.72804192886876E-06,-76.476188659668
1.73356282959997E-06,-76.3188400268555
1.73908373033118E-06,-76.1798553466797
1.74460463106239E-06,-76.0602951049805
1.7501255317936E-06,-75.9612045288086
1.75564643252481E-06,-75.8836517333984
1.76116733325602E-06,-75.8286895751953
1.76668823398723E-06,-75.7973709106445
1.77220913471844E-06,-75.7907638549805
1.77773003544965E-06,-75.8099136352539
1.78325093618086E-06,-75.8558807373047
1.78877183691207E-06,-75.9297180175781
1.79429273764328E-06,-76.0457000732422
1.79981363837449E-06,-76.2183227539063
1.8053345391057E-06,-76.437614440918
1.81085543983691E-06,-76.6933517456055
1.81637634056812E-06,-76.9752960205078
1.82189724129933E-06,-77.2732238769531
1.82741814203054E-06,-77.5769119262695
1.83293904276175E-06,-77.8761367797852
1.83845994349296E-06,-78.1606674194336
1.84398084422417E-06,-78.420280456543
1.84950174495538E-06,-78.6447448730469
1.85502264568659E-06,-78.8238372802734
1.8605435464178E-06,-78.9613265991211
1.86606444714901E-06,-79.0805587768555
1.87158534788022E-06,-79.1826019287109
1.87710624861143E-06,-79.267822265625
1.88262714934264E-06,-79.3366012573242
1.88814805007385E-06,-79.3893051147461
1.89366895080506E-06,-79.4263153076172
1.89918985153627E-06,-79.447998046875
1.90471075226748E-06,-79.454719543457
1.91023165299869E-06,-79.4468688964844
1.9157525537299E-06,-79.4248123168945
1.92127345446111E-06,-79.3889236450195
1.92679435519232E-06,-79.3313446044922
1.93231525592353E-06,-79.2349700927734
1.93783615665474E-06,-79.1062927246094
1.94335705738595E-06,-78.9529190063477
1.94887795811716E-06,-78.7824783325195
1.95439885884837E-06,-78.6025924682617
1.95991975957958E-06,-78.4208755493164
1.9654406603108E-06,-78.2449645996094
1.970961561042E-06,-78.0824661254883
1.97648246177322E-06,-77.9410095214844
1.98200336250443E-06,-77.8282165527344
1.98752426323564E-06,-77.751708984375
1.99304516396685E-06,-77.7131958007813
1.99856606469806E-06,-77.6965103149414
2.00408696542927E-06,-77.6988830566406
2.00960786616048E-06,-77.7189559936523
2.01512876689169E-06,-77.7553405761719
2.0206496676229E-06,-77.8066635131836
2.02617056835411E-06,-77.8715667724609
2.03169146908532E-06,-77.9486618041992
2.03721236981653E-06,-78.0365753173828
2.04273327054774E-06,-78.1339416503906
2.04825417127895E-06,-78.2393798828125
2.05377507201016E-06,-78.3515243530273
2.05929597274137E-06,-78.472526550293
2.06481687347258E-06,-78.6152877807617
2.07033777420379E-06,-78.7777938842773
2.075858674935E-06,-78.956169128418
2.08137957566621E-06,-79.1465377807617
2.08690047639742E-06,-79.3450241088867
2.09242137712863E-06,-79.5477523803711
2.09794227785984E-06,-79.750846862793
2.10346317859105E-06,-79.950439453125
2.10898407932226E-06,-80.1426544189453
2.11450498005347E-06,-80.3236236572266
2.12002588078468E-06,-80.4894561767578
2.12554678151589E-06,-80.6395721435547
2.1310676822471E-06,-80.7895965576172
2.13658858297831E-06,-80.9401779174805
2.14210948370952E-06,-81.0889892578125
2.14763038444073E-06,-81.2336959838867
2.15315128517194E-06,-81.3719635009766
2.15867218590315E-06,-81.50146484375
2.16419308663436E-06,-81.6198654174805
2.16971398736557E-06,-81.7248382568359
2.17523488809678E-06,-81.8140487670898
2.18075578882799E-06,-81.8851623535156
2.1862766895592E-06,-81.9358520507813
2.19179759029041E-06,-81.9632034301758
2.19731849102162E-06,-81.9625244140625
2.20283939175283E-06,-81.9365692138672
2.20836029248404E-06,-81.8894195556641
2.21388119321525E-06,-81.8251647949219
2.21940209394646E-06,-81.7478866577148
2.22492299467767E-06,-81.6616744995117
2.23044389540888E-06,-81.5706024169922
2.23596479614009E-06,-81.4787673950195
2.2414856968713E-06,-81.390251159668
2.24700659760251E-06,-81.3091278076172
2.25252749833372E-06,-81.2394943237305
2.25804839906493E-06,-81.1831588745117
2.26356929979614E-06,-81.1186141967773
2.26909020052735E-06,-81.0432662963867
2.27461110125856E-06,-80.9618148803711
2.28013200198977E-06,-80.8789672851563
2.28565290272098E-06,-80.799446105957
2.29117380345219E-06,-80.7279510498047
2.2966947041834E-06,-80.669189453125
2.30221560491461E-06,-80.6278839111328
2.30773650564582E-06,-80.6087265014648
2.31325740637703E-06,-80.6164321899414
2.31877830710824E-06,-80.6557235717773
2.32429920783945E-06,-80.7303771972656
2.32982010857066E-06,-80.8280868530273
2.33534100930187E-06,-80.9441757202148
2.34086191003308E-06,-81.0794982910156
2.34638281076429E-06,-81.2348937988281
2.3519037114955E-06,-81.4112167358398
2.35742461222671E-06,-81.6093063354492
2.36294551295792E-06,-81.8300094604492
2.36846641368913E-06,-82.0741806030273
2.37398731442034E-06,-82.342658996582
2.37950821515155E-06,-82.6362915039063
2.38502911588276E-06,-82.955924987793
2.39055001661397E-06,-83.3034133911133
2.39607091734518E-06,-83.707160949707
2.40159181807639E-06,-84.1705627441406
2.4071127188076E-06,-84.6809921264648
2.41263361953881E-06,-85.2258377075195
2.41815452027002E-06,-85.7925033569336
2.42367542100123E-06,-86.3683700561523
2.42919632173244E-06,-86.9408264160156
2.43471722246365E-06,-87.4972610473633
2.44023812319486E-06,-88.0250701904297
2.44575902392607E-06,-88.5116348266602
2.45127992465728E-06,-88.9443511962891
2.45680082538849E-06,-89.3111190795898
2.4623217261197E-06,-89.63818359375
2.46784262685091E-06,-89.9445648193359
2.47336352758212E-06,-90.2282104492188
2.47888442831333E-06,-90.4870529174805
2.48440532904454E-06,-90.7190246582031
2.48992622977575E-06,-90.9220657348633
2.49544713050696E-06,-91.094108581543
2.50096803123817E-06,-91.2331008911133
2.50648893196938E-06,-91.3369674682617
2.51200983270059E-06,-91.4036407470703
2.5175307334318E-06,-91.4310760498047
2.52305163416301E-06,-91.4171524047852
2.52857253489422E-06,-91.3467407226563
2.53409343562543E-06,-91.2149810791016
2.53961433635665E-06,-91.0307540893555
2.54513523708785E-06,-90.8029632568359
2.55065613781907E-06,-90.5404968261719
2.55617703855028E-06,-90.2522506713867
2.56169793928149E-06,-89.9471206665039
2.5672188400127E-06,-89.6339950561523
2.57273974074391E-06,-89.32177734375
2.57826064147512E-06,-89.0193481445313
2.58378154220633E-06,-88.7356185913086
2.58930244293754E-06,-88.4794692993164
2.59482334366875E-06,-88.240104675293
2.60034424439996E-06,-87.9997711181641
2.60586514513117E-06,-87.7590637207031
2.61138604586238E-06,-87.5185775756836
2.61690694659359E-06,-87.2789077758789
2.6224278473248E-06,-87.040657043457
2.62794874805601E-06,-86.8044281005859
2.63346964878722E-06,-86.5708160400391
2.63899054951843E-06,-86.3404083251953
2.64451145024964E-06,-86.1138229370117
2.65003235098085E-06,-85.8916473388672
2.65555325171206E-06,-85.6744842529297
2.66107415244327E-06,-85.4548950195313
2.66659505317448E-06,-85.2244338989258
2.67211595390569E-06,-84.9875564575195
2.6776368546369E-06,-84.7488250732422
2.68315775536811E-06,-84.5128021240234
2.68867865609932E-06,-84.2840576171875
2.69419955683053E-06,-84.0671463012695
2.69972045756174E-06,-83.8666305541992
2.70524135829295E-06,-83.6870727539063
2.71076225902416E-06,-83.5330352783203
2.71628315975537E-06,-83.4090728759766
2.72180406048658E-06,-83.3197555541992
