Trace
Swept SA
A.19.55,N9020B
508 AB2 B25 B40 B85 DP2 DP4 EP2 FS1 FS2 MPB RTL ,01
Segment,0
Number of Points,81920
Sweep Time,0.0004096
Start Frequency,2400000000
Stop Frequency,2400000000
Average Count,0
Average Type,LogPower(Video)
RBW,3000000
RBW Filter,Gaussian
RBW Filter BW,3dB
VBW,3000000
Sweep Type,Swept
X Axis Scale,Lin
PreAmp State,Off
PreAmp Band,Low
Trigger Source,Ext1
Trigger Level,1.2
Trigger Slope,Positive
Trigger Delay,1E-06
Phase Noise Optimization,Fast
Swept If Gain,Low
FFT If Gain,Autorange
RF Coupling,AC
FFT Width,411900
Ext Ref,10000000
Input,RF
RF Calibrator,Off
Attenuation,6
Ref Level Offset,0
External Gain,0
Trace Type,Clearwrite
Detector,Normal
Trace Math,Off
Trace Math Oper1,Trace5
Trace Math Oper2,Trace6
Trace Math Offset,0
Normalize,Off
Trace Name,Trace1
X Axis Units,s
Y Axis Units,dBm
DATA
0,-75.121711730957
5.00006103590132E-09,-74.9867858886719
1.00001220718026E-08,-74.8449935913086
1.50001831077039E-08,-74.7000350952148
2.00002441436053E-08,-74.5556488037109
2.50003051795066E-08,-74.4155502319336
3.00003662154079E-08,-74.2834701538086
3.50004272513092E-08,-74.1631164550781
4.00004882872105E-08,-74.058219909668
4.50005493231118E-08,-73.9725036621094
5.00006103590132E-08,-73.9096908569336
5.50006713949145E-08,-73.8735046386719
6.00007324308158E-08,-73.8659820556641
6.50007934667171E-08,-73.868896484375
7.00008545026184E-08,-73.8786315917969
7.50009155385197E-08,-73.8982315063477
8.00009765744211E-08,-73.9307403564453
8.50010376103224E-08,-73.9791946411133
9.00010986462237E-08,-74.046630859375
9.5001159682125E-08,-74.1360931396484
1.00001220718026E-07,-74.2506332397461
1.05001281753928E-07,-74.3932723999023
1.10001342789829E-07,-74.5670623779297
1.1500140382573E-07,-74.7750473022461
1.20001464861632E-07,-75.020263671875
1.25001525897533E-07,-75.3057479858398
1.30001586933434E-07,-75.6543960571289
1.35001647969336E-07,-76.0782775878906
1.40001709005237E-07,-76.564208984375
1.45001770041138E-07,-77.0989837646484
1.50001831077039E-07,-77.6694259643555
1.55001892112941E-07,-78.262336730957
1.60001953148842E-07,-78.8645248413086
1.65002014184743E-07,-79.4627990722656
1.70002075220645E-07,-80.0439682006836
1.75002136256546E-07,-80.594841003418
1.80002197292447E-07,-81.1022262573242
1.85002258328349E-07,-81.5529327392578
1.9000231936425E-07,-81.9337692260742
1.95002380400151E-07,-82.2447967529297
2.00002441436053E-07,-82.5222015380859
2.05002502471954E-07,-82.7695159912109
2.10002563507855E-07,-82.9871826171875
2.15002624543757E-07,-83.1756591796875
2.20002685579658E-07,-83.3354110717773
2.25002746615559E-07,-83.4668960571289
2.30002807651461E-07,-83.570556640625
2.35002868687362E-07,-83.6468658447266
2.40002929723263E-07,-83.6962661743164
2.45002990759165E-07,-83.7192230224609
2.50003051795066E-07,-83.7161865234375
2.55003112830967E-07,-83.687629699707
2.60003173866868E-07,-83.6323013305664
2.6500323490277E-07,-83.5305480957031
2.70003295938671E-07,-83.381706237793
2.75003356974572E-07,-83.1922836303711
2.80003418010474E-07,-82.9688186645508
2.85003479046375E-07,-82.7178268432617
2.90003540082276E-07,-82.4458312988281
2.95003601118178E-07,-82.1593551635742
3.00003662154079E-07,-81.8649291992188
3.0500372318998E-07,-81.5690689086914
3.10003784225882E-07,-81.2782897949219
3.15003845261783E-07,-80.9991302490234
3.20003906297684E-07,-80.7381134033203
3.25003967333586E-07,-80.5017471313477
3.30004028369487E-07,-80.2767562866211
3.35004089405388E-07,-80.0468826293945
3.4000415044129E-07,-79.8141632080078
3.45004211477191E-07,-79.5806732177734
3.50004272513092E-07,-79.3484649658203
3.55004333548993E-07,-79.1195831298828
3.60004394584895E-07,-78.8960952758789
3.65004455620796E-07,-78.680046081543
3.70004516656697E-07,-78.4734954833984
3.75004577692599E-07,-78.2785034179688
3.800046387285E-07,-78.0971298217773
3.85004699764401E-07,-77.9314117431641
3.90004760800303E-07,-77.7834243774414
3.95004821836204E-07,-77.6510162353516
4.00004882872105E-07,-77.5226974487305
4.05004943908007E-07,-77.3996124267578
4.10005004943908E-07,-77.2839431762695
4.15005065979809E-07,-77.1779022216797
4.20005127015711E-07,-77.0836715698242
4.25005188051612E-07,-77.0034484863281
4.30005249087513E-07,-76.9394378662109
4.35005310123415E-07,-76.8938217163086
4.40005371159316E-07,-76.8688049316406
4.45005432195217E-07,-76.8665771484375
4.50005493231119E-07,-76.8893356323242
4.5500555426702E-07,-76.9392700195313
4.60005615302921E-07,-77.0204925537109
4.65005676338822E-07,-77.1562423706055
4.70005737374724E-07,-77.344856262207
4.75005798410625E-07,-77.5761108398438
4.80005859446526E-07,-77.8397903442383
4.85005920482428E-07,-78.1256942749023
4.90005981518329E-07,-78.4235992431641
4.9500604255423E-07,-78.7232971191406
5.00006103590132E-07,-79.0145797729492
5.05006164626033E-07,-79.2872314453125
5.10006225661934E-07,-79.5310440063477
5.15006286697836E-07,-79.7357940673828
5.20006347733737E-07,-79.8912811279297
5.25006408769638E-07,-79.9872894287109
5.3000646980554E-07,-80.0280380249023
5.35006530841441E-07,-80.0277938842773
5.40006591877342E-07,-79.9913864135742
5.45006652913243E-07,-79.9236831665039
5.50006713949145E-07,-79.8295135498047
5.55006774985046E-07,-79.713737487793
5.60006836020948E-07,-79.5811996459961
5.65006897056849E-07,-79.4367446899414
5.7000695809275E-07,-79.2852172851563
5.75007019128651E-07,-79.131462097168
5.80007080164553E-07,-78.980339050293
5.85007141200454E-07,-78.8366851806641
5.90007202236355E-07,-78.7053451538086
5.95007263272257E-07,-78.579460144043
6.00007324308158E-07,-78.426872253418
6.05007385344059E-07,-78.2517318725586
6.10007446379961E-07,-78.0611724853516
6.15007507415862E-07,-77.8623046875
6.20007568451763E-07,-77.6622619628906
6.25007629487665E-07,-77.4681549072266
6.30007690523566E-07,-77.2871246337891
6.35007751559467E-07,-77.1262893676758
6.40007812595369E-07,-76.9927749633789
6.4500787363127E-07,-76.8936996459961
6.50007934667171E-07,-76.836181640625
6.55007995703072E-07,-76.8273620605469
6.60008056738974E-07,-76.8706665039063
6.65008117774875E-07,-76.9254379272461
6.70008178810776E-07,-76.9847030639648
6.75008239846678E-07,-77.0563049316406
6.80008300882579E-07,-77.1480941772461
6.8500836191848E-07,-77.2679138183594
6.90008422954382E-07,-77.4236068725586
6.95008483990283E-07,-77.6230163574219
7.00008545026184E-07,-77.8739929199219
7.05008606062086E-07,-78.1843795776367
7.10008667097987E-07,-78.5620193481445
7.15008728133888E-07,-79.0147552490234
7.2000878916979E-07,-79.5504379272461
7.25008850205691E-07,-80.1769027709961
7.30008911241592E-07,-80.9461059570313
7.35008972277494E-07,-81.8843765258789
7.40009033313395E-07,-82.9611358642578
7.45009094349296E-07,-84.1458206176758
7.50009155385198E-07,-85.4078598022461
7.55009216421099E-07,-86.7166900634766
7.60009277457E-07,-88.0417251586914
7.65009338492901E-07,-89.3524017333984
7.70009399528803E-07,-90.6181564331055
7.75009460564704E-07,-91.8084106445313
7.80009521600605E-07,-92.8926010131836
7.85009582636507E-07,-93.8401412963867
7.90009643672408E-07,-94.6204833984375
7.95009704708309E-07,-95.2253952026367
8.00009765744211E-07,-95.7157135009766
8.05009826780112E-07,-96.1062545776367
8.10009887816013E-07,-96.4069747924805
8.15009948851915E-07,-96.6278457641602
8.20010009887816E-07,-96.7788238525391
8.25010070923717E-07,-96.8698883056641
8.30010131959619E-07,-96.9109878540039
8.3501019299552E-07,-96.9121017456055
8.40010254031421E-07,-96.8831939697266
8.45010315067323E-07,-96.834228515625
8.50010376103224E-07,-96.7751693725586
8.55010437139125E-07,-96.7159805297852
8.60010498175026E-07,-96.6641845703125
8.65010559210928E-07,-96.5948333740234
8.70010620246829E-07,-96.4985961914063
8.7501068128273E-07,-96.3751678466797
8.80010742318632E-07,-96.2242660522461
8.85010803354533E-07,-96.0455856323242
8.90010864390434E-07,-95.8388290405273
8.95010925426336E-07,-95.6037063598633
9.00010986462237E-07,-95.3399200439453
9.05011047498138E-07,-95.0471725463867
9.1001110853404E-07,-94.7251739501953
9.15011169569941E-07,-94.3736190795898
9.20011230605842E-07,-93.9922180175781
9.25011291641744E-07,-93.5806732177734
9.30011352677645E-07,-93.1145172119141
9.35011413713546E-07,-92.5775451660156
9.40011474749448E-07,-91.9818496704102
9.45011535785349E-07,-91.3395462036133
9.5001159682125E-07,-90.6627426147461
9.55011657857151E-07,-89.9635391235352
9.60011718893053E-07,-89.2540435791016
9.65011779928954E-07,-88.5463562011719
9.70011840964855E-07,-87.8525848388672
9.75011902000757E-07,-87.1848373413086
9.80011963036658E-07,-86.5552062988281
9.85012024072559E-07,-85.9758148193359
9.90012085108461E-07,-85.4587631225586
9.95012146144362E-07,-85.0043640136719
1.00001220718026E-06,-84.5804672241211
1.00501226821616E-06,-84.1835403442383
1.01001232925207E-06,-83.8127517700195
1.01501239028797E-06,-83.46728515625
1.02001245132387E-06,-83.1463012695313
1.02501251235977E-06,-82.8489990234375
1.03001257339567E-06,-82.5745315551758
1.03501263443157E-06,-82.3220825195313
1.04001269546747E-06,-82.0908203125
1.04501275650338E-06,-81.8799362182617
1.05001281753928E-06,-81.688591003418
1.05501287857518E-06,-81.5159606933594
1.06001293961108E-06,-81.3629837036133
1.06501300064698E-06,-81.2500381469727
1.07001306168288E-06,-81.1781387329102
1.07501312271878E-06,-81.1408462524414
1.08001318375468E-06,-81.1317138671875
1.08501324479059E-06,-81.1443099975586
1.09001330582649E-06,-81.1721878051758
1.09501336686239E-06,-81.2089157104492
1.10001342789829E-06,-81.2480392456055
1.10501348893419E-06,-81.2831344604492
1.11001354997009E-06,-81.307746887207
1.11501361100599E-06,-81.3154449462891
1.1200136720419E-06,-81.2997817993164
1.1250137330778E-06,-81.2543182373047
1.1300137941137E-06,-81.1861267089844
1.1350138551496E-06,-81.1071624755859
1.1400139161855E-06,-81.0183486938477
1.1450139772214E-06,-80.9206008911133
1.1500140382573E-06,-80.814826965332
1.1550140992932E-06,-80.7019424438477
1.16001416032911E-06,-80.5828704833984
1.16501422136501E-06,-80.4585266113281
1.17001428240091E-06,-80.3298187255859
1.17501434343681E-06,-80.1976699829102
1.18001440447271E-06,-80.0629806518555
1.18501446550861E-06,-79.9266891479492
1.19001452654451E-06,-79.7896881103516
1.19501458758041E-06,-79.6456680297852
1.20001464861632E-06,-79.4746627807617
1.20501470965222E-06,-79.2814788818359
1.21001477068812E-06,-79.0728225708008
1.21501483172402E-06,-78.8554000854492
1.22001489275992E-06,-78.6359176635742
1.22501495379582E-06,-78.4210968017578
1.23001501483172E-06,-78.2176284790039
1.23501507586763E-06,-78.0322418212891
1.24001513690353E-06,-77.8716278076172
1.24501519793943E-06,-77.7425079345703
1.25001525897533E-06,-77.6515808105469
1.25501532001123E-06,-77.6055679321289
1.26001538104713E-06,-77.6112747192383
1.26501544208303E-06,-77.6724700927734
1.27001550311893E-06,-77.7831420898438
1.27501556415484E-06,-77.9358367919922
1.28001562519074E-06,-78.1230850219727
1.28501568622664E-06,-78.3374404907227
1.29001574726254E-06,-78.5714340209961
1.29501580829844E-06,-78.8176116943359
1.30001586933434E-06,-79.0685119628906
1.30501593037024E-06,-79.3166809082031
1.31001599140614E-06,-79.5546493530273
1.31501605244205E-06,-79.7749633789063
1.32001611347795E-06,-79.9701766967773
1.32501617451385E-06,-80.1328048706055
1.33001623554975E-06,-80.2824783325195
1.33501629658565E-06,-80.4407501220703
1.34001635762155E-06,-80.603141784668
1.34501641865745E-06,-80.7651443481445
1.35001647969336E-06,-80.9222640991211
1.35501654072926E-06,-81.0700073242188
1.36001660176516E-06,-81.2038803100586
1.36501666280106E-06,-81.3193817138672
1.37001672383696E-06,-81.4120178222656
1.37501678487286E-06,-81.477294921875
1.38001684590876E-06,-81.5107116699219
1.38501690694466E-06,-81.5077667236328
1.39001696798057E-06,-81.463981628418
1.39501702901647E-06,-81.369026184082
1.40001709005237E-06,-81.2067947387695
1.40501715108827E-06,-80.986686706543
1.41001721212417E-06,-80.7198791503906
1.41501727316007E-06,-80.4175186157227
1.42001733419597E-06,-80.0907821655273
1.42501739523188E-06,-79.7508239746094
1.43001745626778E-06,-79.408805847168
1.43501751730368E-06,-79.0758972167969
1.44001757833958E-06,-78.7632446289063
1.44501763937548E-06,-78.4820251464844
1.45001770041138E-06,-78.2433929443359
1.45501776144728E-06,-78.0585098266602
1.46001782248318E-06,-77.9372863769531
1.46501788351909E-06,-77.8694381713867
1.47001794455499E-06,-77.8447265625
1.47501800559089E-06,-77.8565979003906
1.48001806662679E-06,-77.8984985351563
1.48501812766269E-06,-77.9638748168945
1.49001818869859E-06,-78.0461654663086
1.49501824973449E-06,-78.1388244628906
1.5000183107704E-06,-78.2352905273438
1.5050183718063E-06,-78.3290100097656
1.5100184328422E-06,-78.4134368896484
1.5150184938781E-06,-78.4820022583008
1.520018554914E-06,-78.5281524658203
1.5250186159499E-06,-78.5453491210938
1.5300186769858E-06,-78.5546417236328
1.5350187380217E-06,-78.5775985717773
1.54001879905761E-06,-78.6083984375
1.54501886009351E-06,-78.6412200927734
1.55001892112941E-06,-78.6702423095703
1.55501898216531E-06,-78.6896438598633
1.56001904320121E-06,-78.6935958862305
1.56501910423711E-06,-78.6762924194336
1.57001916527301E-06,-78.6319046020508
1.57501922630891E-06,-78.5546112060547
1.58001928734482E-06,-78.438591003418
1.58501934838072E-06,-78.2780303955078
1.59001940941662E-06,-78.0671005249023
1.59501947045252E-06,-77.7981948852539
1.60001953148842E-06,-77.4662704467773
1.60501959252432E-06,-77.0789489746094
1.61001965356022E-06,-76.6445541381836
1.61501971459613E-06,-76.1714172363281
1.62001977563203E-06,-75.6678848266602
1.62501983666793E-06,-75.1422653198242
1.63001989770383E-06,-74.602912902832
1.63501995873973E-06,-74.0581436157227
1.64002001977563E-06,-73.5162887573242
1.64502008081153E-06,-72.9856948852539
1.65002014184743E-06,-72.4746780395508
1.65502020288334E-06,-71.991569519043
1.66002026391924E-06,-71.5417327880859
1.66502032495514E-06,-71.0934295654297
1.67002038599104E-06,-70.6387023925781
1.67502044702694E-06,-70.1811447143555
1.68002050806284E-06,-69.724365234375
1.68502056909874E-06,-69.2719573974609
1.69002063013465E-06,-68.8275146484375
1.69502069117055E-06,-68.394645690918
1.70002075220645E-06,-67.976936340332
1.70502081324235E-06,-67.5779876708984
1.71002087427825E-06,-67.2014007568359
1.71502093531415E-06,-66.8507690429688
1.72002099635005E-06,-66.5296936035156
1.72502105738595E-06,-66.2417755126953
1.73002111842186E-06,-65.9794921875
1.73502117945776E-06,-65.7337493896484
1.74002124049366E-06,-65.5057754516602
1.74502130152956E-06,-65.2967987060547
1.75002136256546E-06,-65.1080322265625
1.75502142360136E-06,-64.9407043457031
1.76002148463726E-06,-64.7960510253906
1.76502154567316E-06,-64.6752853393555
1.77002160670907E-06,-64.5796356201172
1.77502166774497E-06,-64.5103225708008
1.78002172878087E-06,-64.4685821533203
1.78502178981677E-06,-64.4556350708008
1.79002185085267E-06,-64.4727020263672
1.79502191188857E-06,-64.5182952880859
1.80002197292447E-06,-64.5849533081055
1.80502203396038E-06,-64.6735305786133
1.81002209499628E-06,-64.7855758666992
1.81502215603218E-06,-64.9226226806641
1.82002221706808E-06,-65.0862197875977
1.82502227810398E-06,-65.2779006958008
1.83002233913988E-06,-65.4992218017578
1.83502240017578E-06,-65.7517166137695
1.84002246121168E-06,-66.0369262695313
1.84502252224759E-06,-66.3563995361328
1.85002258328349E-06,-66.711669921875
1.85502264431939E-06,-67.1042861938477
1.86002270535529E-06,-67.5382690429688
1.86502276639119E-06,-68.0433654785156
1.87002282742709E-06,-68.6185836791992
1.87502288846299E-06,-69.2519989013672
1.8800229494989E-06,-69.9317092895508
1.8850230105348E-06,-70.6458053588867
1.8900230715707E-06,-71.3823776245117
1.8950231326066E-06,-72.129508972168
1.9000231936425E-06,-72.8752899169922
1.9050232546784E-06,-73.6078109741211
1.9100233157143E-06,-74.3151626586914
1.9150233767502E-06,-74.9854354858398
1.92002343778611E-06,-75.6067123413086
1.92502349882201E-06,-76.1670913696289
1.93002355985791E-06,-76.682991027832
1.93502362089381E-06,-77.1788177490234
1.94002368192971E-06,-77.6546249389648
1.94502374296561E-06,-78.1104736328125
1.95002380400151E-06,-78.5464172363281
1.95502386503741E-06,-78.9625244140625
1.96002392607332E-06,-79.3588409423828
1.96502398710922E-06,-79.7354278564453
1.97002404814512E-06,-80.0923385620117
1.97502410918102E-06,-80.4296417236328
1.98002417021692E-06,-80.7473907470703
1.98502423125282E-06,-81.0456390380859
1.99002429228872E-06,-81.3244400024414
1.99502435332463E-06,-81.580322265625
2.00002441436053E-06,-81.8035049438477
2.00502447539643E-06,-81.9967498779297
2.01002453643233E-06,-82.1637725830078
2.01502459746823E-06,-82.3082809448242
2.02002465850413E-06,-82.4340057373047
2.02502471954003E-06,-82.5446395874023
2.03002478057593E-06,-82.643913269043
2.03502484161184E-06,-82.7355346679688
2.04002490264774E-06,-82.8232116699219
2.04502496368364E-06,-82.9106674194336
2.05002502471954E-06,-83.0016174316406
2.05502508575544E-06,-83.0997695922852
2.06002514679134E-06,-83.2098693847656
2.06502520782724E-06,-83.3455657958984
2.07002526886315E-06,-83.5036697387695
2.07502532989905E-06,-83.6759796142578
2.08002539093495E-06,-83.8543014526367
2.08502545197085E-06,-84.0304107666016
2.09002551300675E-06,-84.1961212158203
2.09502557404265E-06,-84.3432159423828
2.10002563507855E-06,-84.463508605957
2.10502569611445E-06,-84.5487747192383
2.11002575715036E-06,-84.5908203125
2.11502581818626E-06,-84.5814437866211
2.12002587922216E-06,-84.5124359130859
2.12502594025806E-06,-84.3755950927734
2.13002600129396E-06,-84.1582870483398
2.13502606232986E-06,-83.8611450195313
2.14002612336576E-06,-83.4958572387695
2.14502618440166E-06,-83.074104309082
2.15002624543757E-06,-82.6075820922852
2.15502630647347E-06,-82.1079788208008
2.16002636750937E-06,-81.5869827270508
2.16502642854527E-06,-81.056282043457
2.17002648958117E-06,-80.5275726318359
2.17502655061707E-06,-80.0125350952148
2.18002661165297E-06,-79.5228652954102
2.18502667268888E-06,-79.0702514648438
2.19002673372478E-06,-78.6663818359375
2.19502679476068E-06,-78.3086853027344
2.20002685579658E-06,-77.9581527709961
2.20502691683248E-06,-77.6136627197266
2.21002697786838E-06,-77.2775039672852
2.21502703890428E-06,-76.9519500732422
2.22002709994018E-06,-76.6392822265625
2.22502716097609E-06,-76.3417739868164
2.23002722201199E-06,-76.0617065429688
2.23502728304789E-06,-75.8013534545898
2.24002734408379E-06,-75.5630035400391
2.24502740511969E-06,-75.3489151000977
2.25002746615559E-06,-75.1613845825195
2.25502752719149E-06,-75.002685546875
2.2600275882274E-06,-74.874626159668
2.2650276492633E-06,-74.7726440429688
2.2700277102992E-06,-74.6946182250977
2.2750277713351E-06,-74.6400833129883
2.280027832371E-06,-74.6085662841797
2.2850278934069E-06,-74.599609375
2.2900279544428E-06,-74.6127319335938
2.2950280154787E-06,-74.6474761962891
2.30002807651461E-06,-74.7033615112305
2.30502813755051E-06,-74.7799377441406
2.31002819858641E-06,-74.8767242431641
2.31502825962231E-06,-74.9932632446289
2.32002832065821E-06,-75.1290740966797
2.32502838169411E-06,-75.2836990356445
2.33002844273001E-06,-75.4693984985352
2.33502850376592E-06,-75.6949768066406
2.34002856480182E-06,-75.9547958374023
2.34502862583772E-06,-76.2432022094727
2.35002868687362E-06,-76.5545425415039
2.35502874790952E-06,-76.8831558227539
2.36002880894542E-06,-77.2234115600586
2.36502886998132E-06,-77.5696411132813
2.37002893101722E-06,-77.9162063598633
2.37502899205313E-06,-78.257453918457
2.38002905308903E-06,-78.5877227783203
2.38502911412493E-06,-78.9013748168945
2.39002917516083E-06,-79.192756652832
2.39502923619673E-06,-79.4651336669922
2.40002929723263E-06,-79.7429504394531
2.40502935826853E-06,-80.0251235961914
2.41002941930443E-06,-80.3084106445313
2.41502948034034E-06,-80.5895309448242
2.42002954137624E-06,-80.8652420043945
2.42502960241214E-06,-81.1322784423828
2.43002966344804E-06,-81.3873748779297
2.43502972448394E-06,-81.6272735595703
2.44002978551984E-06,-81.8487091064453
2.44502984655574E-06,-82.0484313964844
2.45002990759165E-06,-82.2231826782227
2.45502996862755E-06,-82.3696899414063
2.46003002966345E-06,-82.4846878051758
2.46503009069935E-06,-82.5667343139648
2.47003015173525E-06,-82.6187591552734
