Trace
Swept SA
A.19.55,N9020B
508 AB2 B25 B40 B85 DP2 DP4 EP2 FS1 FS2 MPB RTL ,01
Segment,0
Number of Points,81920
Sweep Time,0.0004096
Start Frequency,2400000000
Stop Frequency,2400000000
Average Count,0
Average Type,LogPower(Video)
RBW,3000000
RBW Filter,Gaussian
RBW Filter BW,3dB
VBW,3000000
Sweep Type,Swept
X Axis Scale,Lin
PreAmp State,Off
PreAmp Band,Low
Trigger Source,Ext1
Trigger Level,1.2
Trigger Slope,Positive
Trigger Delay,1E-06
Phase Noise Optimization,Fast
Swept If Gain,Low
FFT If Gain,Autorange
RF Coupling,AC
FFT Width,411900
Ext Ref,10000000
Input,RF
RF Calibrator,Off
Attenuation,6
Ref Level Offset,0
External Gain,0
Trace Type,Clearwrite
Detector,Normal
Trace Math,Off
Trace Math Oper1,Trace5
Trace Math Oper2,Trace6
Trace Math Offset,0
Normalize,Off
Trace Name,Trace1
X Axis Units,s
Y Axis Units,dBm
DATA
0,-58.8726768493652
5.00006103590132E-09,-59.1221618652344
1.00001220718026E-08,-59.3601722717285
1.50001831077039E-08,-59.5858039855957
2.00002441436053E-08,-59.7981491088867
2.50003051795066E-08,-59.9963073730469
3.00003662154079E-08,-60.1793632507324
3.50004272513092E-08,-60.3464164733887
4.00004882872105E-08,-60.4965629577637
4.50005493231118E-08,-60.6288909912109
5.00006103590132E-08,-60.7425003051758
5.50006713949145E-08,-60.836483001709
6.00007324308158E-08,-60.9092063903809
6.50007934667171E-08,-60.9518051147461
7.00008545026184E-08,-60.9649848937988
7.50009155385197E-08,-60.9526977539063
8.00009765744211E-08,-60.9189071655273
8.50010376103224E-08,-60.8675651550293
9.00010986462237E-08,-60.8026275634766
9.5001159682125E-08,-60.7280540466309
1.00001220718026E-07,-60.6478042602539
1.05001281753928E-07,-60.5658264160156
1.10001342789829E-07,-60.4860877990723
1.1500140382573E-07,-60.4125366210938
1.20001464861632E-07,-60.3491325378418
1.25001525897533E-07,-60.2998352050781
1.30001586933434E-07,-60.2525863647461
1.35001647969336E-07,-60.1948280334473
1.40001709005237E-07,-60.1297416687012
1.45001770041138E-07,-60.0605239868164
1.50001831077039E-07,-59.990364074707
1.55001892112941E-07,-59.9224510192871
1.60001953148842E-07,-59.859977722168
1.65002014184743E-07,-59.8061332702637
1.70002075220645E-07,-59.7641067504883
1.75002136256546E-07,-59.7370910644531
1.80002197292447E-07,-59.7282752990723
1.85002258328349E-07,-59.7408485412598
1.9000231936425E-07,-59.778003692627
1.95002380400151E-07,-59.8407897949219
2.00002441436053E-07,-59.9233818054199
2.05002502471954E-07,-60.0240821838379
2.10002563507855E-07,-60.1416473388672
2.15002624543757E-07,-60.2748374938965
2.20002685579658E-07,-60.4224052429199
2.25002746615559E-07,-60.5831069946289
2.30002807651461E-07,-60.7557029724121
2.35002868687362E-07,-60.9389419555664
2.40002929723263E-07,-61.1315879821777
2.45002990759165E-07,-61.3323974609375
2.50003051795066E-07,-61.5401229858398
2.55003112830967E-07,-61.7535171508789
2.60003173866868E-07,-61.9723281860352
2.6500323490277E-07,-62.207633972168
2.70003295938671E-07,-62.4607009887695
2.75003356974572E-07,-62.7287521362305
2.80003418010474E-07,-63.0090217590332
2.85003479046375E-07,-63.2987213134766
2.90003540082276E-07,-63.595085144043
2.95003601118178E-07,-63.8953323364258
3.00003662154079E-07,-64.1966934204102
3.0500372318998E-07,-64.4963836669922
3.10003784225882E-07,-64.791633605957
3.15003845261783E-07,-65.0796661376953
3.20003906297684E-07,-65.3577041625977
3.25003967333586E-07,-65.6229782104492
3.30004028369487E-07,-65.8743591308594
3.35004089405388E-07,-66.1141815185547
3.4000415044129E-07,-66.3448715209961
3.45004211477191E-07,-66.5688629150391
3.50004272513092E-07,-66.7885589599609
3.55004333548993E-07,-67.0064010620117
3.60004394584895E-07,-67.2248001098633
3.65004455620796E-07,-67.4461822509766
3.70004516656697E-07,-67.6729736328125
3.75004577692599E-07,-67.9075927734375
3.800046387285E-07,-68.1524658203125
3.85004699764401E-07,-68.4100189208984
3.90004760800303E-07,-68.6826705932617
3.95004821836204E-07,-68.9765396118164
4.00004882872105E-07,-69.3018646240234
4.05004943908007E-07,-69.6531295776367
4.10005004943908E-07,-70.0237197875977
4.15005065979809E-07,-70.4070129394531
4.20005127015711E-07,-70.7963943481445
4.25005188051612E-07,-71.1852569580078
4.30005249087513E-07,-71.5669784545898
4.35005310123415E-07,-71.934944152832
4.40005371159316E-07,-72.2825393676758
4.45005432195217E-07,-72.6031494140625
4.50005493231119E-07,-72.8901596069336
4.5500555426702E-07,-73.1369552612305
4.60005615302921E-07,-73.3364868164063
4.65005676338822E-07,-73.4811172485352
4.70005737374724E-07,-73.5767211914063
4.75005798410625E-07,-73.6320495605469
4.80005859446526E-07,-73.6558227539063
4.85005920482428E-07,-73.6567916870117
4.90005981518329E-07,-73.6436767578125
4.9500604255423E-07,-73.6252365112305
5.00006103590132E-07,-73.6101837158203
5.05006164626033E-07,-73.6072769165039
5.10006225661934E-07,-73.625244140625
5.15006286697836E-07,-73.6728210449219
5.20006347733737E-07,-73.7587432861328
5.25006408769638E-07,-73.8917541503906
5.3000646980554E-07,-74.0861434936523
5.35006530841441E-07,-74.3418121337891
5.40006591877342E-07,-74.6459045410156
5.45006652913243E-07,-74.9855575561523
5.50006713949145E-07,-75.3479232788086
5.55006774985046E-07,-75.7201309204102
5.60006836020948E-07,-76.0893325805664
5.65006897056849E-07,-76.4426651000977
5.7000695809275E-07,-76.7672653198242
5.75007019128651E-07,-77.0502777099609
5.80007080164553E-07,-77.2788467407227
5.85007141200454E-07,-77.4401168823242
5.90007202236355E-07,-77.5212173461914
5.95007263272257E-07,-77.5146636962891
6.00007324308158E-07,-77.434928894043
6.05007385344059E-07,-77.2914352416992
6.10007446379961E-07,-77.0926895141602
6.15007507415862E-07,-76.8471832275391
6.20007568451763E-07,-76.5634002685547
6.25007629487665E-07,-76.2498397827148
6.30007690523566E-07,-75.9150009155273
6.35007751559467E-07,-75.5673675537109
6.40007812595369E-07,-75.2154312133789
6.4500787363127E-07,-74.8676986694336
6.50007934667171E-07,-74.5326538085938
6.55007995703072E-07,-74.2187881469727
6.60008056738974E-07,-73.9306411743164
6.65008117774875E-07,-73.6249923706055
6.70008178810776E-07,-73.2935791015625
6.75008239846678E-07,-72.9439086914063
6.80008300882579E-07,-72.58349609375
6.8500836191848E-07,-72.219841003418
6.90008422954382E-07,-71.8604431152344
6.95008483990283E-07,-71.512809753418
7.00008545026184E-07,-71.1844482421875
7.05008606062086E-07,-70.8828582763672
7.10008667097987E-07,-70.6155471801758
7.15008728133888E-07,-70.390022277832
7.2000878916979E-07,-70.2137832641602
7.25008850205691E-07,-70.0943298339844
7.30008911241592E-07,-70.0319976806641
7.35008972277494E-07,-70.0185928344727
7.40009033313395E-07,-70.0489044189453
7.45009094349296E-07,-70.1177139282227
7.50009155385198E-07,-70.2197799682617
7.55009216421099E-07,-70.3498916625977
7.60009277457E-07,-70.502815246582
7.65009338492901E-07,-70.6733322143555
7.70009399528803E-07,-70.8562164306641
7.75009460564704E-07,-71.0462417602539
7.80009521600605E-07,-71.2381820678711
7.85009582636507E-07,-71.4268188476563
7.90009643672408E-07,-71.6069259643555
7.95009704708309E-07,-71.7854080200195
8.00009765744211E-07,-71.9956207275391
8.05009826780112E-07,-72.2334594726563
8.10009887816013E-07,-72.4917602539063
8.15009948851915E-07,-72.7633514404297
8.20010009887816E-07,-73.0410766601563
8.25010070923717E-07,-73.3177642822266
8.30010131959619E-07,-73.5862503051758
8.3501019299552E-07,-73.8393707275391
8.40010254031421E-07,-74.069953918457
8.45010315067323E-07,-74.2708435058594
8.50010376103224E-07,-74.4348602294922
8.55010437139125E-07,-74.5548553466797
8.60010498175026E-07,-74.6225280761719
8.65010559210928E-07,-74.6219024658203
8.70010620246829E-07,-74.5592575073242
8.7501068128273E-07,-74.4467620849609
8.80010742318632E-07,-74.2966156005859
8.85010803354533E-07,-74.1209869384766
8.90010864390434E-07,-73.9320602416992
8.95010925426336E-07,-73.7420120239258
9.00010986462237E-07,-73.5630340576172
9.05011047498138E-07,-73.4072952270508
9.1001110853404E-07,-73.2869873046875
9.15011169569941E-07,-73.2142868041992
9.20011230605842E-07,-73.2013778686523
9.25011291641744E-07,-73.2604370117188
9.30011352677645E-07,-73.4089202880859
9.35011413713546E-07,-73.6449890136719
9.40011474749448E-07,-73.9519424438477
9.45011535785349E-07,-74.3130493164063
9.5001159682125E-07,-74.7116088867188
9.55011657857151E-07,-75.1308898925781
9.60011718893053E-07,-75.5541763305664
9.65011779928954E-07,-75.9647521972656
9.70011840964855E-07,-76.3459014892578
9.75011902000757E-07,-76.680908203125
9.80011963036658E-07,-76.9530487060547
9.85012024072559E-07,-77.1456146240234
9.90012085108461E-07,-77.2418746948242
9.95012146144362E-07,-77.2330780029297
1.00001220718026E-06,-77.1407318115234
1.00501226821616E-06,-76.976318359375
1.01001232925207E-06,-76.7498474121094
1.01501239028797E-06,-76.4713134765625
1.02001245132387E-06,-76.1507110595703
1.02501251235977E-06,-75.7980346679688
1.03001257339567E-06,-75.4233016967773
1.03501263443157E-06,-75.0364837646484
1.04001269546747E-06,-74.6476058959961
1.04501275650338E-06,-74.2666473388672
1.05001281753928E-06,-73.9036102294922
1.05501287857518E-06,-73.5684967041016
1.06001293961108E-06,-73.2672653198242
1.06501300064698E-06,-72.9562835693359
1.07001306168288E-06,-72.6259460449219
1.07501312271878E-06,-72.2825241088867
1.08001318375468E-06,-71.9322738647461
1.08501324479059E-06,-71.5814895629883
1.09001330582649E-06,-71.2364196777344
1.09501336686239E-06,-70.9033432006836
1.10001342789829E-06,-70.5885238647461
1.10501348893419E-06,-70.2982482910156
1.11001354997009E-06,-70.0387649536133
1.11501361100599E-06,-69.8163604736328
1.1200136720419E-06,-69.6372985839844
1.1250137330778E-06,-69.5078506469727
1.1300137941137E-06,-69.4321746826172
1.1350138551496E-06,-69.4060745239258
1.1400139161855E-06,-69.4232864379883
1.1450139772214E-06,-69.4775619506836
1.1500140382573E-06,-69.562629699707
1.1550140992932E-06,-69.672233581543
1.16001416032911E-06,-69.8001251220703
1.16501422136501E-06,-69.9400329589844
1.17001428240091E-06,-70.0857009887695
1.17501434343681E-06,-70.2308731079102
1.18001440447271E-06,-70.3692932128906
1.18501446550861E-06,-70.4946975708008
1.19001452654451E-06,-70.6008224487305
1.19501458758041E-06,-70.6904907226563
1.20001464861632E-06,-70.7885284423828
1.20501470965222E-06,-70.894401550293
1.21001477068812E-06,-71.0053558349609
1.21501483172402E-06,-71.1186447143555
1.22001489275992E-06,-71.2315292358398
1.22501495379582E-06,-71.3412475585938
1.23001501483172E-06,-71.4450531005859
1.23501507586763E-06,-71.5402145385742
1.24001513690353E-06,-71.6239624023438
1.24501519793943E-06,-71.6935653686523
1.25001525897533E-06,-71.7462692260742
1.25501532001123E-06,-71.7793273925781
1.26001538104713E-06,-71.7883758544922
1.26501544208303E-06,-71.7533187866211
1.27001550311893E-06,-71.676383972168
1.27501556415484E-06,-71.5671615600586
1.28001562519074E-06,-71.4352569580078
1.28501568622664E-06,-71.2902679443359
1.29001574726254E-06,-71.1418075561523
1.29501580829844E-06,-70.9994659423828
1.30001586933434E-06,-70.8728485107422
1.30501593037024E-06,-70.7715530395508
1.31001599140614E-06,-70.7051773071289
1.31501605244205E-06,-70.6833343505859
1.32001611347795E-06,-70.7156219482422
1.32501617451385E-06,-70.8116302490234
1.33001623554975E-06,-70.9949645996094
1.33501629658565E-06,-71.2708358764648
1.34001635762155E-06,-71.6212768554688
1.34501641865745E-06,-72.0283279418945
1.35001647969336E-06,-72.4740219116211
1.35501654072926E-06,-72.9403915405273
1.36001660176516E-06,-73.4094696044922
1.36501666280106E-06,-73.8632965087891
1.37001672383696E-06,-74.2839126586914
1.37501678487286E-06,-74.6533432006836
1.38001684590876E-06,-74.9536209106445
1.38501690694466E-06,-75.1667861938477
1.39001696798057E-06,-75.2748794555664
1.39501702901647E-06,-75.266960144043
1.40001709005237E-06,-75.1619491577148
1.40501715108827E-06,-74.9734039306641
1.41001721212417E-06,-74.7136993408203
1.41501727316007E-06,-74.3951873779297
1.42001733419597E-06,-74.0302429199219
1.42501739523188E-06,-73.631217956543
1.43001745626778E-06,-73.2104797363281
1.43501751730368E-06,-72.7803955078125
1.44001757833958E-06,-72.3533248901367
1.44501763937548E-06,-71.9416351318359
1.45001770041138E-06,-71.5576858520508
1.45501776144728E-06,-71.2138442993164
1.46001782248318E-06,-70.9184799194336
1.46501788351909E-06,-70.6294708251953
1.47001794455499E-06,-70.3350677490234
1.47501800559089E-06,-70.0388717651367
1.48001806662679E-06,-69.7444534301758
1.48501812766269E-06,-69.4553985595703
1.49001818869859E-06,-69.17529296875
1.49501824973449E-06,-68.90771484375
1.5000183107704E-06,-68.6562576293945
1.5050183718063E-06,-68.4244918823242
1.5100184328422E-06,-68.2160034179688
1.5150184938781E-06,-68.0343780517578
1.520018554914E-06,-67.8832015991211
1.5250186159499E-06,-67.7660522460938
1.5300186769858E-06,-67.6996841430664
1.5350187380217E-06,-67.6914138793945
1.54001879905761E-06,-67.7306594848633
1.54501886009351E-06,-67.8068695068359
1.55001892112941E-06,-67.9094619750977
1.55501898216531E-06,-68.0278701782227
1.56001904320121E-06,-68.1515197753906
1.56501910423711E-06,-68.2698440551758
1.57001916527301E-06,-68.3722763061523
1.57501922630891E-06,-68.4482345581055
1.58001928734482E-06,-68.4871597290039
1.58501934838072E-06,-68.4784851074219
1.59001940941662E-06,-68.41162109375
1.59501947045252E-06,-68.2853927612305
1.60001953148842E-06,-68.1253509521484
1.60501959252432E-06,-67.9353103637695
1.61001965356022E-06,-67.7169723510742
1.61501971459613E-06,-67.4720230102539
1.62001977563203E-06,-67.2021560668945
1.62501983666793E-06,-66.9090728759766
1.63001989770383E-06,-66.5944595336914
1.63501995873973E-06,-66.260009765625
1.64002001977563E-06,-65.9074172973633
1.64502008081153E-06,-65.5383834838867
1.65002014184743E-06,-65.1545944213867
1.65502020288334E-06,-64.7577514648438
1.66002026391924E-06,-64.3475723266602
1.66502032495514E-06,-63.9015693664551
1.67002038599104E-06,-63.4179153442383
1.67502044702694E-06,-62.903003692627
1.68002050806284E-06,-62.363224029541
1.68502056909874E-06,-61.8049736022949
1.69002063013465E-06,-61.2346382141113
1.69502069117055E-06,-60.6586151123047
1.70002075220645E-06,-60.0832939147949
1.70502081324235E-06,-59.515064239502
1.71002087427825E-06,-58.9603233337402
1.71502093531415E-06,-58.4254570007324
1.72002099635005E-06,-57.916862487793
1.72502105738595E-06,-57.4409332275391
1.73002111842186E-06,-56.9843444824219
1.73502117945776E-06,-56.5309677124023
1.74002124049366E-06,-56.0829620361328
1.74502130152956E-06,-55.6424789428711
1.75002136256546E-06,-55.2116813659668
1.75502142360136E-06,-54.7927284240723
1.76002148463726E-06,-54.3877792358398
1.76502154567316E-06,-53.9989929199219
1.77002160670907E-06,-53.6285285949707
1.77502166774497E-06,-53.2785453796387
1.78002172878087E-06,-52.9511985778809
1.78502178981677E-06,-52.6486473083496
1.79002185085267E-06,-52.3730583190918
1.79502191188857E-06,-52.1237182617188
1.80002197292447E-06,-51.8927879333496
1.80502203396038E-06,-51.6802520751953
1.81002209499628E-06,-51.4867706298828
1.81502215603218E-06,-51.3130111694336
1.82002221706808E-06,-51.1596412658691
1.82502227810398E-06,-51.0273246765137
1.83002233913988E-06,-50.9167289733887
1.83502240017578E-06,-50.8285179138184
1.84002246121168E-06,-50.7633590698242
1.84502252224759E-06,-50.7219200134277
1.85002258328349E-06,-50.7048606872559
1.85502264431939E-06,-50.7128562927246
1.86002270535529E-06,-50.7465476989746
1.86502276639119E-06,-50.8059959411621
1.87002282742709E-06,-50.8905982971191
1.87502288846299E-06,-50.9997253417969
1.8800229494989E-06,-51.1327476501465
1.8850230105348E-06,-51.2890434265137
1.8900230715707E-06,-51.4679794311523
1.8950231326066E-06,-51.6689300537109
1.9000231936425E-06,-51.8912658691406
1.9050232546784E-06,-52.1343612670898
1.9100233157143E-06,-52.3975868225098
1.9150233767502E-06,-52.6803169250488
1.92002343778611E-06,-52.9819183349609
1.92502349882201E-06,-53.3017692565918
1.93002355985791E-06,-53.6553192138672
1.93502362089381E-06,-54.0537109375
1.94002368192971E-06,-54.4898529052734
1.94502374296561E-06,-54.9566497802734
1.95002380400151E-06,-55.4470100402832
1.95502386503741E-06,-55.9538383483887
1.96002392607332E-06,-56.470043182373
1.96502398710922E-06,-56.9885292053223
1.97002404814512E-06,-57.5022048950195
1.97502410918102E-06,-58.0039749145508
1.98002417021692E-06,-58.486743927002
1.98502423125282E-06,-58.9434280395508
1.99002429228872E-06,-59.3669242858887
1.99502435332463E-06,-59.7601127624512
2.00002441436053E-06,-60.1502952575684
2.00502447539643E-06,-60.5371017456055
2.01002453643233E-06,-60.9177436828613
2.01502459746823E-06,-61.289436340332
2.02002465850413E-06,-61.6493911743164
2.02502471954003E-06,-61.9948272705078
2.03002478057593E-06,-62.3229560852051
2.03502484161184E-06,-62.6309928894043
2.04002490264774E-06,-62.9161491394043
2.04502496368364E-06,-63.1756401062012
2.05002502471954E-06,-63.4066848754883
2.05502508575544E-06,-63.6064910888672
2.06002514679134E-06,-63.772102355957
2.06502520782724E-06,-63.9004364013672
2.07002526886315E-06,-63.9939613342285
2.07502532989905E-06,-64.0563201904297
2.08002539093495E-06,-64.0911407470703
2.08502545197085E-06,-64.1020584106445
2.09002551300675E-06,-64.0927124023438
2.09502557404265E-06,-64.0667343139648
2.10002563507855E-06,-64.0277557373047
2.10502569611445E-06,-63.9794082641602
2.11002575715036E-06,-63.9253311157227
2.11502581818626E-06,-63.8691596984863
2.12002587922216E-06,-63.814525604248
2.12502594025806E-06,-63.7650604248047
2.13002600129396E-06,-63.7117118835449
2.13502606232986E-06,-63.6442947387695
2.14002612336576E-06,-63.564769744873
2.14502618440166E-06,-63.4750747680664
2.15002624543757E-06,-63.3771705627441
2.15502630647347E-06,-63.2730026245117
2.16002636750937E-06,-63.1645240783691
2.16502642854527E-06,-63.0536842346191
2.17002648958117E-06,-62.9424324035645
2.17502655061707E-06,-62.8327178955078
2.18002661165297E-06,-62.7264976501465
2.18502667268888E-06,-62.6257133483887
2.19002673372478E-06,-62.5323257446289
2.19502679476068E-06,-62.444393157959
2.20002685579658E-06,-62.3512573242188
2.20502691683248E-06,-62.2539367675781
2.21002697786838E-06,-62.154411315918
2.21502703890428E-06,-62.0546646118164
2.22002709994018E-06,-61.9566802978516
2.22502716097609E-06,-61.8624458312988
2.23002722201199E-06,-61.7739448547363
2.23502728304789E-06,-61.6931571960449
2.24002734408379E-06,-61.6220703125
2.24502740511969E-06,-61.5626678466797
2.25002746615559E-06,-61.5169334411621
2.25502752719149E-06,-61.4868469238281
2.2600275882274E-06,-61.4734382629395
2.2650276492633E-06,-61.4661636352539
2.2700277102992E-06,-61.4630928039551
2.2750277713351E-06,-61.4661331176758
2.280027832371E-06,-61.4771919250488
2.2850278934069E-06,-61.4981803894043
2.2900279544428E-06,-61.531005859375
2.2950280154787E-06,-61.577579498291
2.30002807651461E-06,-61.6398048400879
2.30502813755051E-06,-61.7195930480957
2.31002819858641E-06,-61.8188552856445
2.31502825962231E-06,-61.9394989013672
2.32002832065821E-06,-62.0834312438965
2.32502838169411E-06,-62.2525596618652
2.33002844273001E-06,-62.4540634155273
2.33502850376592E-06,-62.6906471252441
2.34002856480182E-06,-62.9575386047363
2.34502862583772E-06,-63.2499580383301
2.35002868687362E-06,-63.5631256103516
2.35502874790952E-06,-63.892261505127
2.36002880894542E-06,-64.2325897216797
2.36502886998132E-06,-64.5793228149414
2.37002893101722E-06,-64.9276885986328
2.37502899205313E-06,-65.2729110717773
2.38002905308903E-06,-65.6101989746094
2.38502911412493E-06,-65.9347839355469
2.39002917516083E-06,-66.2418899536133
2.39502923619673E-06,-66.5368423461914
2.40002929723263E-06,-66.8474426269531
2.40502935826853E-06,-67.1707153320313
2.41002941930443E-06,-67.5011596679688
2.41502948034034E-06,-67.8332672119141
2.42002954137624E-06,-68.1615371704102
2.42502960241214E-06,-68.4804611206055
2.43002966344804E-06,-68.7845306396484
2.43502972448394E-06,-69.068244934082
2.44002978551984E-06,-69.3260955810547
2.44502984655574E-06,-69.5525817871094
2.45002990759165E-06,-69.7421875
2.45502996862755E-06,-69.8894195556641
2.46003002966345E-06,-69.9874038696289
2.46503009069935E-06,-70.0179672241211
2.47003015173525E-06,-69.9858551025391
