Trace
Swept SA
A.19.55,N9020B
508 AB2 B25 B40 B85 DP2 DP4 EP2 FS1 FS2 MPB RTL ,01
Segment,0
Number of Points,81920
Sweep Time,0.000452266667
Start Frequency,2400000000
Stop Frequency,2400000000
Average Count,0
Average Type,LogPower(Video)
RBW,3000000
RBW Filter,Gaussian
RBW Filter BW,3dB
VBW,3000000
Sweep Type,Swept
X Axis Scale,Lin
PreAmp State,Off
PreAmp Band,Low
Trigger Source,Ext1
Trigger Level,1.2
Trigger Slope,Positive
Trigger Delay,1E-06
Phase Noise Optimization,Fast
Swept If Gain,Low
FFT If Gain,Autorange
RF Coupling,AC
FFT Width,411900
Ext Ref,10000000
Input,RF
RF Calibrator,Off
Attenuation,6
Ref Level Offset,0
External Gain,0
Trace Type,Clearwrite
Detector,Normal
Trace Math,Off
Trace Math Oper1,Trace5
Trace Math Oper2,Trace6
Trace Math Offset,0
Normalize,Off
Trace Name,Trace1
X Axis Units,s
Y Axis Units,dBm
DATA
0,-67.7993469238281
5.5209007312101E-09,-68.5430297851563
1.10418014624202E-08,-69.3260726928711
1.65627021936303E-08,-70.1368865966797
2.20836029248404E-08,-70.9638900756836
2.76045036560505E-08,-71.7955017089844
3.31254043872606E-08,-72.6201400756836
3.86463051184707E-08,-73.4262313842773
4.41672058496808E-08,-74.2021865844727
4.96881065808909E-08,-74.9364242553711
5.5209007312101E-08,-75.6173706054688
6.07299080433111E-08,-76.2653579711914
6.62508087745212E-08,-76.9251327514648
7.17717095057313E-08,-77.5873718261719
7.72926102369414E-08,-78.2417602539063
8.28135109681515E-08,-78.8779525756836
8.83344116993616E-08,-79.4856185913086
9.38553124305717E-08,-80.054443359375
9.93762131617818E-08,-80.5740966796875
1.04897113892992E-07,-81.0342330932617
1.10418014624202E-07,-81.4245376586914
1.15938915355412E-07,-81.7346801757813
1.21459816086622E-07,-81.9543228149414
1.26980716817832E-07,-82.0746841430664
1.32501617549042E-07,-82.0997619628906
1.38022518280252E-07,-82.0398788452148
1.43543419011463E-07,-81.9054183959961
1.49064319742673E-07,-81.7067642211914
1.54585220473883E-07,-81.4542922973633
1.60106121205093E-07,-81.1583862304688
1.65627021936303E-07,-80.8294143676758
1.71147922667513E-07,-80.4777679443359
1.76668823398723E-07,-80.1138153076172
1.82189724129933E-07,-79.7479476928711
1.87710624861143E-07,-79.3905334472656
1.93231525592353E-07,-79.0305786132813
1.98752426323564E-07,-78.6166229248047
2.04273327054774E-07,-78.1561431884766
2.09794227785984E-07,-77.6606216430664
2.15315128517194E-07,-77.1415328979492
2.20836029248404E-07,-76.6103591918945
2.26356929979614E-07,-76.0785980224609
2.31877830710824E-07,-75.5577163696289
2.37398731442034E-07,-75.059196472168
2.42919632173244E-07,-74.5945281982422
2.48440532904454E-07,-74.1751937866211
2.53961433635664E-07,-73.8126678466797
2.59482334366875E-07,-73.5058364868164
2.65003235098085E-07,-73.2152709960938
2.70524135829295E-07,-72.9407958984375
2.76045036560505E-07,-72.6867065429688
2.81565937291715E-07,-72.4573059082031
2.87086838022925E-07,-72.2568740844727
2.92607738754135E-07,-72.089714050293
2.98128639485345E-07,-71.9601211547852
3.03649540216555E-07,-71.8723831176758
3.09170440947765E-07,-71.8307952880859
3.14691341678976E-07,-71.8396453857422
3.20212242410186E-07,-71.9032363891602
3.25733143141396E-07,-72.0245971679688
3.31254043872606E-07,-72.1989822387695
3.36774944603816E-07,-72.4232635498047
3.42295845335026E-07,-72.6949310302734
3.47816746066236E-07,-73.0114898681641
3.53337646797446E-07,-73.3704299926758
3.58858547528656E-07,-73.7692642211914
3.64379448259866E-07,-74.2054748535156
3.69900348991077E-07,-74.6765747070313
3.75421249722287E-07,-75.180046081543
3.80942150453497E-07,-75.7133941650391
3.86463051184707E-07,-76.2741241455078
3.91983951915917E-07,-76.8675079345703
3.97504852647127E-07,-77.5388031005859
4.03025753378337E-07,-78.2829818725586
4.08546654109547E-07,-79.0846710205078
4.14067554840757E-07,-79.9284973144531
4.19588455571967E-07,-80.7990798950195
4.25109356303178E-07,-81.681037902832
4.30630257034388E-07,-82.5589981079102
4.36151157765598E-07,-83.4175796508789
4.41672058496808E-07,-84.2414016723633
4.47192959228018E-07,-85.0150985717773
4.52713859959228E-07,-85.7232818603516
4.58234760690438E-07,-86.3598175048828
4.63755661421648E-07,-86.9968185424805
4.69276562152858E-07,-87.6418380737305
4.74797462884068E-07,-88.2810668945313
4.80318363615278E-07,-88.9007110595703
4.85839264346489E-07,-89.486946105957
4.91360165077699E-07,-90.0259857177734
4.96881065808909E-07,-90.504020690918
5.02401966540119E-07,-90.9072341918945
5.07922867271329E-07,-91.2218399047852
5.13443768002539E-07,-91.4340133666992
5.18964668733749E-07,-91.5299606323242
5.24485569464959E-07,-91.4945449829102
5.30006470196169E-07,-91.3054733276367
5.3552737092738E-07,-90.9752578735352
5.4104827165859E-07,-90.5250778198242
5.465691723898E-07,-89.9761352539063
5.5209007312101E-07,-89.3496170043945
5.5761097385222E-07,-88.6667022705078
5.6313187458343E-07,-87.9485931396484
5.6865277531464E-07,-87.2164688110352
5.7417367604585E-07,-86.4915161132813
5.7969457677706E-07,-85.7949371337891
5.8521547750827E-07,-85.1479110717773
5.90736378239481E-07,-84.5680160522461
5.96257278970691E-07,-83.9909591674805
6.01778179701901E-07,-83.3921356201172
6.07299080433111E-07,-82.7799072265625
6.12819981164321E-07,-82.1626129150391
6.18340881895531E-07,-81.5485992431641
6.23861782626741E-07,-80.9462203979492
6.29382683357951E-07,-80.3638229370117
6.34903584089161E-07,-79.8097457885742
6.40424484820371E-07,-79.2923583984375
6.45945385551581E-07,-78.8199844360352
6.51466286282792E-07,-78.4009857177734
6.56987187014002E-07,-78.0434188842773
6.62508087745212E-07,-77.7398071289063
6.68028988476422E-07,-77.4810256958008
6.73549889207632E-07,-77.2636413574219
6.79070789938842E-07,-77.0842361450195
6.84591690670052E-07,-76.9393920898438
6.90112591401262E-07,-76.8256683349609
6.95633492132472E-07,-76.7396545410156
7.01154392863682E-07,-76.6779174804688
7.06675293594893E-07,-76.6370391845703
7.12196194326103E-07,-76.6135864257813
7.17717095057313E-07,-76.6041412353516
7.23237995788523E-07,-76.6055374145508
7.28758896519733E-07,-76.6463088989258
7.34279797250943E-07,-76.7400741577148
7.39800697982153E-07,-76.8760147094727
7.45321598713363E-07,-77.0432968139648
7.50842499444573E-07,-77.2310943603516
7.56363400175783E-07,-77.428581237793
7.61884300906994E-07,-77.6249237060547
7.67405201638204E-07,-77.8093032836914
7.72926102369414E-07,-77.9708938598633
7.78447003100624E-07,-78.0988540649414
7.83967903831834E-07,-78.1823654174805
7.89488804563044E-07,-78.2106094360352
7.95009705294254E-07,-78.1918029785156
8.00530606025464E-07,-78.1420974731445
8.06051506756674E-07,-78.0643539428711
8.11572407487884E-07,-77.9614105224609
8.17093308219094E-07,-77.8361358642578
8.22614208950305E-07,-77.6913757324219
8.28135109681515E-07,-77.5299911499023
8.33656010412725E-07,-77.3548431396484
8.39176911143935E-07,-77.1687698364258
8.44697811875145E-07,-76.9746398925781
8.50218712606355E-07,-76.7753067016602
8.55739613337565E-07,-76.573616027832
8.61260514068775E-07,-76.3546905517578
8.66781414799985E-07,-76.1021881103516
8.72302315531195E-07,-75.8234481811523
8.77823216262406E-07,-75.5258712768555
8.83344116993616E-07,-75.2168655395508
8.88865017724826E-07,-74.9038314819336
8.94385918456036E-07,-74.5941696166992
8.99906819187246E-07,-74.295295715332
9.05427719918456E-07,-74.0146026611328
9.10948620649666E-07,-73.7594985961914
9.16469521380876E-07,-73.5373840332031
9.21990422112086E-07,-73.3556671142578
9.27511322843296E-07,-73.2039642333984
9.33032223574507E-07,-73.0587310791016
9.38553124305717E-07,-72.9236526489258
9.44074025036927E-07,-72.8028106689453
9.49594925768137E-07,-72.700309753418
9.55115826499347E-07,-72.6202239990234
9.60636727230557E-07,-72.5666580200195
9.66157627961767E-07,-72.5436859130859
9.71678528692977E-07,-72.5554122924805
9.77199429424187E-07,-72.6059112548828
9.82720330155397E-07,-72.6992874145508
9.88241230886608E-07,-72.8396224975586
9.93762131617818E-07,-73.0180358886719
9.99283032349028E-07,-73.2123718261719
1.00480393308024E-06,-73.4280319213867
1.01032483381145E-06,-73.6713409423828
1.01584573454266E-06,-73.948616027832
1.02136663527387E-06,-74.2661819458008
1.02688753600508E-06,-74.6303482055664
1.03240843673629E-06,-75.0474319458008
1.0379293374675E-06,-75.5237579345703
1.04345023819871E-06,-76.0656509399414
1.04897113892992E-06,-76.6794128417969
1.05449203966113E-06,-77.3713684082031
1.06001294039234E-06,-78.1834106445313
1.06553384112355E-06,-79.1945419311523
1.07105474185476E-06,-80.367317199707
1.07657564258597E-06,-81.6580810546875
1.08209654331718E-06,-83.0231704711914
1.08761744404839E-06,-84.4189224243164
1.0931383447796E-06,-85.8016815185547
1.09865924551081E-06,-87.1277847290039
1.10418014624202E-06,-88.3535690307617
1.10970104697323E-06,-89.4353713989258
1.11522194770444E-06,-90.3295440673828
1.12074284843565E-06,-90.9924240112305
1.12626374916686E-06,-91.3955230712891
1.13178464989807E-06,-91.5817794799805
1.13730555062928E-06,-91.5835647583008
1.14282645136049E-06,-91.4300918579102
1.1483473520917E-06,-91.1505355834961
1.15386825282291E-06,-90.7741165161133
1.15938915355412E-06,-90.3300094604492
1.16491005428533E-06,-89.8474349975586
1.17043095501654E-06,-89.3555755615234
1.17595185574775E-06,-88.8836364746094
1.18147275647896E-06,-88.4608154296875
1.18699365721017E-06,-88.1163024902344
1.19251455794138E-06,-87.8565139770508
1.19803545867259E-06,-87.5947113037109
1.2035563594038E-06,-87.3232574462891
1.20907726013501E-06,-87.0471649169922
1.21459816086622E-06,-86.7714233398438
1.22011906159743E-06,-86.5010452270508
1.22563996232864E-06,-86.2410354614258
1.23116086305985E-06,-85.9963989257813
1.23668176379106E-06,-85.7721328735352
1.24220266452227E-06,-85.5732421875
1.24772356525348E-06,-85.4047317504883
1.25324446598469E-06,-85.2716064453125
1.2587653667159E-06,-85.1771697998047
1.26428626744711E-06,-85.1133346557617
1.26980716817832E-06,-85.0767822265625
1.27532806890953E-06,-85.0657501220703
1.28084896964074E-06,-85.0784606933594
1.28636987037195E-06,-85.1131362915039
1.29189077110316E-06,-85.1680221557617
1.29741167183437E-06,-85.241325378418
1.30293257256558E-06,-85.3312911987305
1.30845347329679E-06,-85.4361419677734
1.313974374028E-06,-85.5541076660156
1.31949527475921E-06,-85.6834106445313
1.32501617549042E-06,-85.8288421630859
1.33053707622163E-06,-86.0398559570313
1.33605797695284E-06,-86.3126831054688
1.34157887768405E-06,-86.6296539306641
1.34709977841526E-06,-86.9730758666992
1.35262067914647E-06,-87.3252639770508
1.35814157987768E-06,-87.6685409545898
1.36366248060889E-06,-87.9852142333984
1.3691833813401E-06,-88.2576065063477
1.37470428207131E-06,-88.4680328369141
1.38022518280252E-06,-88.5988082885742
1.38574608353373E-06,-88.6322402954102
1.39126698426494E-06,-88.5503082275391
1.39678788499615E-06,-88.3422470092773
1.40230878572736E-06,-88.0242538452148
1.40782968645858E-06,-87.6165771484375
1.41335058718979E-06,-87.1394882202148
1.418871487921E-06,-86.6132583618164
1.42439238865221E-06,-86.0581512451172
1.42991328938342E-06,-85.4944305419922
1.43543419011463E-06,-84.9423675537109
1.44095509084584E-06,-84.4222259521484
1.44647599157705E-06,-83.9542694091797
1.45199689230826E-06,-83.5587615966797
1.45751779303947E-06,-83.2531433105469
1.46303869377068E-06,-82.9958038330078
1.46855959450189E-06,-82.7660751342773
1.4740804952331E-06,-82.5634078979492
1.47960139596431E-06,-82.3872222900391
1.48512229669552E-06,-82.2369613647461
1.49064319742673E-06,-82.112060546875
1.49616409815794E-06,-82.0119476318359
1.50168499888915E-06,-81.9360580444336
1.50720589962036E-06,-81.8838272094727
1.51272680035157E-06,-81.8546905517578
1.51824770108278E-06,-81.8480758666992
1.52376860181399E-06,-81.8649826049805
1.5292895025452E-06,-81.9569854736328
1.53481040327641E-06,-82.133674621582
1.54033130400762E-06,-82.3735733032227
1.54585220473883E-06,-82.6552124023438
1.55137310547004E-06,-82.9571228027344
1.55689400620125E-06,-83.2578277587891
1.56241490693246E-06,-83.5358581542969
1.56793580766367E-06,-83.7697372436523
1.57345670839488E-06,-83.9379959106445
1.57897760912609E-06,-84.0191650390625
1.5844985098573E-06,-83.9917755126953
1.59001941058851E-06,-83.8345489501953
1.59554031131972E-06,-83.5524978637695
1.60106121205093E-06,-83.1674041748047
1.60658211278214E-06,-82.6931533813477
1.61210301351335E-06,-82.1436004638672
1.61762391424456E-06,-81.5326232910156
1.62314481497577E-06,-80.8740844726563
1.62866571570698E-06,-80.1818618774414
1.63418661643819E-06,-79.4698104858398
1.6397075171694E-06,-78.7518157958984
1.64522841790061E-06,-78.0417327880859
1.65074931863182E-06,-77.3534317016602
1.65627021936303E-06,-76.7007293701172
1.66179112009424E-06,-76.0508728027344
1.66731202082545E-06,-75.3728332519531
1.67283292155666E-06,-74.6737670898438
1.67835382228787E-06,-73.960823059082
1.68387472301908E-06,-73.2411422729492
1.68939562375029E-06,-72.5218734741211
1.6949165244815E-06,-71.8101654052734
1.70043742521271E-06,-71.113166809082
1.70595832594392E-06,-70.4380187988281
1.71147922667513E-06,-69.791877746582
1.71700012740634E-06,-69.1818771362305
1.72252102813755E-06,-68.6151809692383
1.72804192886876E-06,-68.0834808349609
1.73356282959997E-06,-67.5718460083008
1.73908373033118E-06,-67.0808792114258
1.74460463106239E-06,-66.6111907958984
1.7501255317936E-06,-66.1634063720703
1.75564643252481E-06,-65.738151550293
1.76116733325602E-06,-65.3360443115234
1.76668823398723E-06,-64.9577102661133
1.77220913471844E-06,-64.603759765625
1.77773003544965E-06,-64.2748260498047
1.78325093618086E-06,-63.9715194702148
1.78877183691207E-06,-63.6944694519043
1.79429273764328E-06,-63.4438896179199
1.79981363837449E-06,-63.219165802002
1.8053345391057E-06,-63.0198402404785
1.81085543983691E-06,-62.8454704284668
1.81637634056812E-06,-62.6956062316895
1.82189724129933E-06,-62.5698013305664
1.82741814203054E-06,-62.4676055908203
1.83293904276175E-06,-62.3885803222656
1.83845994349296E-06,-62.3322715759277
1.84398084422417E-06,-62.2982330322266
1.84950174495538E-06,-62.286018371582
1.85502264568659E-06,-62.2951850891113
1.8605435464178E-06,-62.3281021118164
1.86606444714901E-06,-62.3892097473145
1.87158534788022E-06,-62.4768867492676
1.87710624861143E-06,-62.5893669128418
1.88262714934264E-06,-62.7248687744141
1.88814805007385E-06,-62.8816223144531
1.89366895080506E-06,-63.0578536987305
1.89918985153627E-06,-63.2517852783203
1.90471075226748E-06,-63.4616432189941
1.91023165299869E-06,-63.6856536865234
1.9157525537299E-06,-63.922046661377
1.92127345446111E-06,-64.1690368652344
1.92679435519232E-06,-64.4316558837891
1.93231525592353E-06,-64.7240982055664
1.93783615665474E-06,-65.0426406860352
1.94335705738595E-06,-65.3826599121094
1.94887795811716E-06,-65.7395248413086
1.95439885884837E-06,-66.1086044311523
1.95991975957958E-06,-66.4852600097656
1.9654406603108E-06,-66.8648681640625
1.970961561042E-06,-67.2427978515625
1.97648246177322E-06,-67.6144180297852
1.98200336250443E-06,-67.97509765625
1.98752426323564E-06,-68.3202133178711
1.99304516396685E-06,-68.6523895263672
1.99856606469806E-06,-68.9916534423828
2.00408696542927E-06,-69.3362884521484
2.00960786616048E-06,-69.6827011108398
2.01512876689169E-06,-70.0272903442383
2.0206496676229E-06,-70.3664627075195
2.02617056835411E-06,-70.6966094970703
2.03169146908532E-06,-71.0141372680664
2.03721236981653E-06,-71.3154449462891
2.04273327054774E-06,-71.596923828125
2.04825417127895E-06,-71.8549880981445
2.05377507201016E-06,-72.0860290527344
2.05929597274137E-06,-72.2882766723633
2.06481687347258E-06,-72.4680633544922
2.07033777420379E-06,-72.6273422241211
2.075858674935E-06,-72.7673034667969
2.08137957566621E-06,-72.8891220092773
2.08690047639742E-06,-72.9939727783203
2.09242137712863E-06,-73.0830383300781
2.09794227785984E-06,-73.1574935913086
2.10346317859105E-06,-73.2185211181641
2.10898407932226E-06,-73.2672882080078
2.11450498005347E-06,-73.3049850463867
2.12002588078468E-06,-73.3327865600586
2.12554678151589E-06,-73.3491744995117
2.1310676822471E-06,-73.3408889770508
2.13658858297831E-06,-73.3094024658203
2.14210948370952E-06,-73.2588195800781
2.14763038444073E-06,-73.1932373046875
2.15315128517194E-06,-73.1167602539063
2.15867218590315E-06,-73.0334854125977
2.16419308663436E-06,-72.947509765625
2.16971398736557E-06,-72.8629379272461
2.17523488809678E-06,-72.7838668823242
2.18075578882799E-06,-72.7144012451172
2.1862766895592E-06,-72.6586303710938
2.19179759029041E-06,-72.618034362793
2.19731849102162E-06,-72.5754852294922
2.20283939175283E-06,-72.5293579101563
2.20836029248404E-06,-72.4824295043945
2.21388119321525E-06,-72.4374847412109
2.21940209394646E-06,-72.3972930908203
2.22492299467767E-06,-72.364631652832
2.23044389540888E-06,-72.3422698974609
2.23596479614009E-06,-72.3330001831055
2.2414856968713E-06,-72.3395767211914
2.24700659760251E-06,-72.3647918701172
2.25252749833372E-06,-72.4114227294922
2.25804839906493E-06,-72.4818725585938
2.26356929979614E-06,-72.5735626220703
2.26909020052735E-06,-72.6840972900391
2.27461110125856E-06,-72.8119735717773
2.28013200198977E-06,-72.9556503295898
2.28565290272098E-06,-73.1136169433594
2.29117380345219E-06,-73.2843399047852
2.2966947041834E-06,-73.46630859375
2.30221560491461E-06,-73.6579818725586
2.30773650564582E-06,-73.8578491210938
2.31325740637703E-06,-74.0643844604492
2.31877830710824E-06,-74.2760543823242
2.32429920783945E-06,-74.4929428100586
2.32982010857066E-06,-74.739616394043
2.33534100930187E-06,-75.0183715820313
2.34086191003308E-06,-75.320671081543
2.34638281076429E-06,-75.6379699707031
2.3519037114955E-06,-75.9617233276367
2.35742461222671E-06,-76.2833862304688
2.36294551295792E-06,-76.5944290161133
2.36846641368913E-06,-76.8862838745117
2.37398731442034E-06,-77.1504287719727
2.37950821515155E-06,-77.3783111572266
2.38502911588276E-06,-77.561393737793
2.39055001661397E-06,-77.6914520263672
2.39607091734518E-06,-77.7734069824219
2.40159181807639E-06,-77.8156280517578
2.4071127188076E-06,-77.8230819702148
2.41263361953881E-06,-77.8007431030273
2.41815452027002E-06,-77.7535858154297
2.42367542100123E-06,-77.6865692138672
2.42919632173244E-06,-77.6046752929688
2.43471722246365E-06,-77.5128707885742
2.44023812319486E-06,-77.4161224365234
2.44575902392607E-06,-77.3194122314453
2.45127992465728E-06,-77.2277069091797
2.45680082538849E-06,-77.1454086303711
2.4623217261197E-06,-77.0391693115234
2.46784262685091E-06,-76.8950424194336
2.47336352758212E-06,-76.7241516113281
2.47888442831333E-06,-76.5376129150391
2.48440532904454E-06,-76.3465347290039
2.48992622977575E-06,-76.1620483398438
2.49544713050696E-06,-75.9952697753906
2.50096803123817E-06,-75.857307434082
2.50648893196938E-06,-75.7592849731445
2.51200983270059E-06,-75.7123184204102
2.5175307334318E-06,-75.7275314331055
2.52305163416301E-06,-75.8160552978516
2.52857253489422E-06,-75.9905166625977
2.53409343562543E-06,-76.24560546875
2.53961433635665E-06,-76.5673141479492
2.54513523708785E-06,-76.9416275024414
2.55065613781907E-06,-77.3545227050781
2.55617703855028E-06,-77.7919998168945
2.56169793928149E-06,-78.2400436401367
2.5672188400127E-06,-78.6846389770508
2.57273974074391E-06,-79.1117706298828
2.57826064147512E-06,-79.5074234008789
2.58378154220633E-06,-79.8575973510742
2.58930244293754E-06,-80.1482620239258
2.59482334366875E-06,-80.3981323242188
2.60034424439996E-06,-80.6363525390625
2.60586514513117E-06,-80.8610610961914
2.61138604586238E-06,-81.0703582763672
2.61690694659359E-06,-81.2623672485352
2.6224278473248E-06,-81.4351959228516
2.62794874805601E-06,-81.5869674682617
2.63346964878722E-06,-81.7157974243164
2.63899054951843E-06,-81.8197860717773
2.64451145024964E-06,-81.8970565795898
2.65003235098085E-06,-81.9457244873047
2.65555325171206E-06,-81.9638977050781
2.66107415244327E-06,-81.9222869873047
2.66659505317448E-06,-81.7932205200195
2.67211595390569E-06,-81.5964965820313
2.6776368546369E-06,-81.3522567749023
2.68315775536811E-06,-81.0806503295898
2.68867865609932E-06,-80.8018188476563
2.69419955683053E-06,-80.535888671875
2.69972045756174E-06,-80.3030166625977
2.70524135829295E-06,-80.1233444213867
2.71076225902416E-06,-80.0169982910156
2.71628315975537E-06,-80.0041275024414
2.72180406048658E-06,-80.1048736572266
