Trace
Swept SA
A.19.55,N9020B
508 AB2 B25 B40 B85 DP2 DP4 EP2 FS1 FS2 MPB RTL ,01
Segment,0
Number of Points,81920
Sweep Time,0.000452266667
Start Frequency,2400000000
Stop Frequency,2400000000
Average Count,0
Average Type,LogPower(Video)
RBW,3000000
RBW Filter,Gaussian
RBW Filter BW,3dB
VBW,3000000
Sweep Type,Swept
X Axis Scale,Lin
PreAmp State,Off
PreAmp Band,Low
Trigger Source,Ext1
Trigger Level,1.2
Trigger Slope,Positive
Trigger Delay,1E-06
Phase Noise Optimization,Fast
Swept If Gain,Low
FFT If Gain,Autorange
RF Coupling,AC
FFT Width,411900
Ext Ref,10000000
Input,RF
RF Calibrator,Off
Attenuation,6
Ref Level Offset,0
External Gain,0
Trace Type,Clearwrite
Detector,Normal
Trace Math,Off
Trace Math Oper1,Trace5
Trace Math Oper2,Trace6
Trace Math Offset,0
Normalize,Off
Trace Name,Trace1
X Axis Units,s
Y Axis Units,dBm
DATA
0,-62.9403762817383
5.5209007312101E-09,-64.1549758911133
1.10418014624202E-08,-65.4518737792969
1.65627021936303E-08,-66.7941131591797
2.20836029248404E-08,-68.1447525024414
2.76045036560505E-08,-69.4668121337891
3.31254043872606E-08,-70.7233581542969
3.86463051184707E-08,-71.8774261474609
4.41672058496808E-08,-72.8920516967773
4.96881065808909E-08,-73.7302856445313
5.5209007312101E-08,-74.3551788330078
6.07299080433111E-08,-74.7559204101563
6.62508087745212E-08,-74.9754104614258
7.17717095057313E-08,-75.0373916625977
7.72926102369414E-08,-74.9650192260742
8.28135109681515E-08,-74.7814407348633
8.83344116993616E-08,-74.5098114013672
9.38553124305717E-08,-74.1732711791992
9.93762131617818E-08,-73.7949829101563
1.04897113892992E-07,-73.3981018066406
1.10418014624202E-07,-73.0057601928711
1.15938915355412E-07,-72.6411285400391
1.21459816086622E-07,-72.3273468017578
1.26980716817832E-07,-72.0534286499023
1.32501617549042E-07,-71.7554473876953
1.38022518280252E-07,-71.4345932006836
1.43543419011463E-07,-71.0948333740234
1.49064319742673E-07,-70.7401428222656
1.54585220473883E-07,-70.3744735717773
1.60106121205093E-07,-70.0018005371094
1.65627021936303E-07,-69.6260757446289
1.71147922667513E-07,-69.2512664794922
1.76668823398723E-07,-68.88134765625
1.82189724129933E-07,-68.5202789306641
1.87710624861143E-07,-68.1720123291016
1.93231525592353E-07,-67.829963684082
1.98752426323564E-07,-67.4687271118164
2.04273327054774E-07,-67.09326171875
2.09794227785984E-07,-66.7105484008789
2.15315128517194E-07,-66.3275680541992
2.20836029248404E-07,-65.951301574707
2.26356929979614E-07,-65.5887298583984
2.31877830710824E-07,-65.2468338012695
2.37398731442034E-07,-64.9325942993164
2.42919632173244E-07,-64.6529922485352
2.48440532904454E-07,-64.4150009155273
2.53961433635664E-07,-64.2256164550781
2.59482334366875E-07,-64.0815200805664
2.65003235098085E-07,-63.9503402709961
2.70524135829295E-07,-63.83447265625
2.76045036560505E-07,-63.7400779724121
2.81565937291715E-07,-63.6733169555664
2.87086838022925E-07,-63.6403541564941
2.92607738754135E-07,-63.647346496582
2.98128639485345E-07,-63.7004547119141
3.03649540216555E-07,-63.8058433532715
3.09170440947765E-07,-63.9696655273438
3.14691341678976E-07,-64.1980895996094
3.20212242410186E-07,-64.4972763061523
3.25733143141396E-07,-64.8900833129883
3.31254043872606E-07,-65.4494247436523
3.36774944603816E-07,-66.1523742675781
3.42295845335026E-07,-66.963134765625
3.47816746066236E-07,-67.8459243774414
3.53337646797446E-07,-68.7649307250977
3.58858547528656E-07,-69.6843795776367
3.64379448259866E-07,-70.5684585571289
3.69900348991077E-07,-71.3813934326172
3.75421249722287E-07,-72.0873718261719
3.80942150453497E-07,-72.6506042480469
3.86463051184707E-07,-73.0353012084961
3.91983951915917E-07,-73.2113342285156
3.97504852647127E-07,-73.2032165527344
4.03025753378337E-07,-73.0407257080078
4.08546654109547E-07,-72.7494125366211
4.14067554840757E-07,-72.3547973632813
4.19588455571967E-07,-71.8824157714844
4.25109356303178E-07,-71.3578109741211
4.30630257034388E-07,-70.806510925293
4.36151157765598E-07,-70.2540512084961
4.41672058496808E-07,-69.725959777832
4.47192959228018E-07,-69.2477798461914
4.52713859959228E-07,-68.8450317382813
4.58234760690438E-07,-68.5324478149414
4.63755661421648E-07,-68.2279815673828
4.69276562152858E-07,-67.9157104492188
4.74797462884068E-07,-67.6037826538086
4.80318363615278E-07,-67.3003463745117
4.85839264346489E-07,-67.0135498046875
4.91360165077699E-07,-66.7515335083008
4.96881065808909E-07,-66.5224456787109
5.02401966540119E-07,-66.3344345092773
5.07922867271329E-07,-66.1956405639648
5.13443768002539E-07,-66.1142196655273
5.18964668733749E-07,-66.0983200073242
5.24485569464959E-07,-66.1565170288086
5.30006470196169E-07,-66.2975921630859
5.3552737092738E-07,-66.5141983032227
5.4104827165859E-07,-66.7955703735352
5.465691723898E-07,-67.1309356689453
5.5209007312101E-07,-67.509521484375
5.5761097385222E-07,-67.9205551147461
5.6313187458343E-07,-68.353271484375
5.6865277531464E-07,-68.7968902587891
5.7417367604585E-07,-69.2406463623047
5.7969457677706E-07,-69.6737670898438
5.8521547750827E-07,-70.0854873657227
5.90736378239481E-07,-70.4678955078125
5.96257278970691E-07,-70.8750762939453
6.01778179701901E-07,-71.3214340209961
6.07299080433111E-07,-71.7939682006836
6.12819981164321E-07,-72.2796936035156
6.18340881895531E-07,-72.7656021118164
6.23861782626741E-07,-73.2387084960938
6.29382683357951E-07,-73.6860046386719
6.34903584089161E-07,-74.0945053100586
6.40424484820371E-07,-74.4512023925781
6.45945385551581E-07,-74.7431182861328
6.51466286282792E-07,-74.9572372436523
6.56987187014002E-07,-75.0803756713867
6.62508087745212E-07,-75.0973510742188
6.68028988476422E-07,-75.0167999267578
6.73549889207632E-07,-74.8556289672852
6.79070789938842E-07,-74.6307373046875
6.84591690670052E-07,-74.3590316772461
6.90112591401262E-07,-74.0574111938477
6.95633492132472E-07,-73.7427749633789
7.01154392863682E-07,-73.4320297241211
7.06675293594893E-07,-73.1420822143555
7.12196194326103E-07,-72.8898315429688
7.17717095057313E-07,-72.6921844482422
7.23237995788523E-07,-72.5658569335938
7.28758896519733E-07,-72.4993667602539
7.34279797250943E-07,-72.4723892211914
7.39800697982153E-07,-72.4778442382813
7.45321598713363E-07,-72.508659362793
7.50842499444573E-07,-72.5577545166016
7.56363400175783E-07,-72.6180648803711
7.61884300906994E-07,-72.6825103759766
7.67405201638204E-07,-72.7440185546875
7.72926102369414E-07,-72.7955093383789
7.78447003100624E-07,-72.8299179077148
7.83967903831834E-07,-72.8401565551758
7.89488804563044E-07,-72.8191604614258
7.95009705294254E-07,-72.7693862915039
8.00530606025464E-07,-72.6996917724609
8.06051506756674E-07,-72.6134872436523
8.11572407487884E-07,-72.51416015625
8.17093308219094E-07,-72.4051132202148
8.22614208950305E-07,-72.2897338867188
8.28135109681515E-07,-72.1714248657227
8.33656010412725E-07,-72.053581237793
8.39176911143935E-07,-71.9395980834961
8.44697811875145E-07,-71.8328704833984
8.50218712606355E-07,-71.7367935180664
8.55739613337565E-07,-71.6547622680664
8.61260514068775E-07,-71.5752868652344
8.66781414799985E-07,-71.4842834472656
8.72302315531195E-07,-71.3867416381836
8.77823216262406E-07,-71.287712097168
8.83344116993616E-07,-71.1922378540039
8.88865017724826E-07,-71.1053695678711
8.94385918456036E-07,-71.0321350097656
8.99906819187246E-07,-70.9775924682617
9.05427719918456E-07,-70.9467849731445
9.10948620649666E-07,-70.9447555541992
9.16469521380876E-07,-70.9765472412109
9.21990422112086E-07,-71.0472106933594
9.27511322843296E-07,-71.1685485839844
9.33032223574507E-07,-71.347541809082
9.38553124305717E-07,-71.5737457275391
9.44074025036927E-07,-71.8365249633789
9.49594925768137E-07,-72.1252593994141
9.55115826499347E-07,-72.4292984008789
9.60636727230557E-07,-72.7380142211914
9.66157627961767E-07,-73.040771484375
9.71678528692977E-07,-73.3269348144531
9.77199429424187E-07,-73.5858688354492
9.82720330155397E-07,-73.8069458007813
9.88241230886608E-07,-73.9795227050781
9.93762131617818E-07,-74.0981597900391
9.99283032349028E-07,-74.1730422973633
1.00480393308024E-06,-74.2121200561523
1.01032483381145E-06,-74.2231369018555
1.01584573454266E-06,-74.2138214111328
1.02136663527387E-06,-74.1919097900391
1.02688753600508E-06,-74.1651306152344
1.03240843673629E-06,-74.1412200927734
1.0379293374675E-06,-74.1279067993164
1.04345023819871E-06,-74.132926940918
1.04897113892992E-06,-74.1640243530273
1.05449203966113E-06,-74.2289123535156
1.06001294039234E-06,-74.3318557739258
1.06553384112355E-06,-74.4647369384766
1.07105474185476E-06,-74.6220550537109
1.07657564258597E-06,-74.7986831665039
1.08209654331718E-06,-74.9894790649414
1.08761744404839E-06,-75.1893310546875
1.0931383447796E-06,-75.3930892944336
1.09865924551081E-06,-75.5956420898438
1.10418014624202E-06,-75.7918395996094
1.10970104697323E-06,-75.9765701293945
1.11522194770444E-06,-76.1446990966797
1.12074284843565E-06,-76.2910919189453
1.12626374916686E-06,-76.4199981689453
1.13178464989807E-06,-76.55908203125
1.13730555062928E-06,-76.7050323486328
1.14282645136049E-06,-76.8515853881836
1.1483473520917E-06,-76.9924926757813
1.15386825282291E-06,-77.1214828491211
1.15938915355412E-06,-77.2322998046875
1.16491005428533E-06,-77.3186874389648
1.17043095501654E-06,-77.374382019043
1.17595185574775E-06,-77.3931274414063
1.18147275647896E-06,-77.3686676025391
1.18699365721017E-06,-77.2947311401367
1.19251455794138E-06,-77.1621322631836
1.19803545867259E-06,-76.9582290649414
1.2035563594038E-06,-76.6923904418945
1.20907726013501E-06,-76.3762893676758
1.21459816086622E-06,-76.0215835571289
1.22011906159743E-06,-75.6399383544922
1.22563996232864E-06,-75.2430114746094
1.23116086305985E-06,-74.8424758911133
1.23668176379106E-06,-74.4499740600586
1.24220266452227E-06,-74.0771865844727
1.24772356525348E-06,-73.7357711791992
1.25324446598469E-06,-73.4373931884766
1.2587653667159E-06,-73.1857223510742
1.26428626744711E-06,-72.9400405883789
1.26980716817832E-06,-72.6965713500977
1.27532806890953E-06,-72.459846496582
1.28084896964074E-06,-72.2343978881836
1.28636987037195E-06,-72.0247497558594
1.29189077110316E-06,-71.8354339599609
1.29741167183437E-06,-71.6709747314453
1.30293257256558E-06,-71.5359039306641
1.30845347329679E-06,-71.4347534179688
1.313974374028E-06,-71.3720474243164
1.31949527475921E-06,-71.3523178100586
1.32501617549042E-06,-71.3835830688477
1.33053707622163E-06,-71.4938049316406
1.33605797695284E-06,-71.67578125
1.34157887768405E-06,-71.9142456054688
1.34709977841526E-06,-72.1939468383789
1.35262067914647E-06,-72.4996185302734
1.35814157987768E-06,-72.8160095214844
1.36366248060889E-06,-73.1278533935547
1.3691833813401E-06,-73.4198989868164
1.37470428207131E-06,-73.6768798828125
1.38022518280252E-06,-73.883544921875
1.38574608353373E-06,-74.0246276855469
1.39126698426494E-06,-74.0863037109375
1.39678788499615E-06,-74.078742980957
1.40230878572736E-06,-74.0153274536133
1.40782968645858E-06,-73.9058837890625
1.41335058718979E-06,-73.7602157592773
1.418871487921E-06,-73.588134765625
1.42439238865221E-06,-73.3994674682617
1.42991328938342E-06,-73.2040100097656
1.43543419011463E-06,-73.0115814208984
1.44095509084584E-06,-72.8320007324219
1.44647599157705E-06,-72.6750793457031
1.45199689230826E-06,-72.5506210327148
1.45751779303947E-06,-72.4678039550781
1.46303869377068E-06,-72.4195785522461
1.46855959450189E-06,-72.3967666625977
1.4740804952331E-06,-72.3937835693359
1.47960139596431E-06,-72.4050521850586
1.48512229669552E-06,-72.4249877929688
1.49064319742673E-06,-72.4480209350586
1.49616409815794E-06,-72.4685592651367
1.50168499888915E-06,-72.4810256958008
1.50720589962036E-06,-72.4798355102539
1.51272680035157E-06,-72.4594192504883
1.51824770108278E-06,-72.4141845703125
1.52376860181399E-06,-72.3394165039063
1.5292895025452E-06,-72.2608108520508
1.53481040327641E-06,-72.1879196166992
1.54033130400762E-06,-72.1143417358398
1.54585220473883E-06,-72.0336608886719
1.55137310547004E-06,-71.9394760131836
1.55689400620125E-06,-71.8253707885742
1.56241490693246E-06,-71.6849517822266
1.56793580766367E-06,-71.5117950439453
1.57345670839488E-06,-71.2995071411133
1.57897760912609E-06,-71.0416793823242
1.5844985098573E-06,-70.7318954467773
1.59001941058851E-06,-70.363655090332
1.59554031131972E-06,-69.9247131347656
1.60106121205093E-06,-69.4171905517578
1.60658211278214E-06,-68.8514938354492
1.61210301351335E-06,-68.2380523681641
1.61762391424456E-06,-67.587272644043
1.62314481497577E-06,-66.9095840454102
1.62866571570698E-06,-66.2153930664063
1.63418661643819E-06,-65.5151290893555
1.6397075171694E-06,-64.819206237793
1.64522841790061E-06,-64.1380386352539
1.65074931863182E-06,-63.4820404052734
1.65627021936303E-06,-62.8615989685059
1.66179112009424E-06,-62.2539901733398
1.66731202082545E-06,-61.6368865966797
1.67283292155666E-06,-61.0146942138672
1.67835382228787E-06,-60.3918342590332
1.68387472301908E-06,-59.7727088928223
1.68939562375029E-06,-59.1617393493652
1.6949165244815E-06,-58.5633316040039
1.70043742521271E-06,-57.9819030761719
1.70595832594392E-06,-57.4218635559082
1.71147922667513E-06,-56.8876304626465
1.71700012740634E-06,-56.3836097717285
1.72252102813755E-06,-55.9142189025879
1.72804192886876E-06,-55.4735832214355
1.73356282959997E-06,-55.0518951416016
1.73908373033118E-06,-54.649959564209
1.74460463106239E-06,-54.2686004638672
1.7501255317936E-06,-53.908634185791
1.75564643252481E-06,-53.5708847045898
1.76116733325602E-06,-53.2561683654785
1.76668823398723E-06,-52.9653053283691
1.77220913471844E-06,-52.6991157531738
1.77773003544965E-06,-52.458423614502
1.78325093618086E-06,-52.2440490722656
1.78877183691207E-06,-52.0568046569824
1.79429273764328E-06,-51.8966369628906
1.79981363837449E-06,-51.7623100280762
1.8053345391057E-06,-51.6534767150879
1.81085543983691E-06,-51.5697822570801
1.81637634056812E-06,-51.5108871459961
1.82189724129933E-06,-51.4764366149902
1.82741814203054E-06,-51.4660873413086
1.83293904276175E-06,-51.4794921875
1.83845994349296E-06,-51.5163078308105
1.84398084422417E-06,-51.5761795043945
1.84950174495538E-06,-51.6587677001953
1.85502264568659E-06,-51.7637252807617
1.8605435464178E-06,-51.8946533203125
1.86606444714901E-06,-52.0577049255371
1.87158534788022E-06,-52.2503089904785
1.87710624861143E-06,-52.4696617126465
1.88262714934264E-06,-52.7129669189453
1.88814805007385E-06,-52.9774208068848
1.89366895080506E-06,-53.2602233886719
1.89918985153627E-06,-53.5585708618164
1.90471075226748E-06,-53.8696670532227
1.91023165299869E-06,-54.1907043457031
1.9157525537299E-06,-54.5188865661621
1.92127345446111E-06,-54.8514099121094
1.92679435519232E-06,-55.1954765319824
1.93231525592353E-06,-55.5720138549805
1.93783615665474E-06,-55.9757537841797
1.94335705738595E-06,-56.4000854492188
1.94887795811716E-06,-56.8384056091309
1.95439885884837E-06,-57.284107208252
1.95991975957958E-06,-57.730583190918
1.9654406603108E-06,-58.1712265014648
1.970961561042E-06,-58.5994300842285
1.97648246177322E-06,-59.0085945129395
1.98200336250443E-06,-59.3921051025391
1.98752426323564E-06,-59.7433547973633
1.99304516396685E-06,-60.0617980957031
1.99856606469806E-06,-60.3639831542969
2.00408696542927E-06,-60.6514663696289
2.00960786616048E-06,-60.9243278503418
2.01512876689169E-06,-61.1826477050781
2.0206496676229E-06,-61.4264984130859
2.02617056835411E-06,-61.6559638977051
2.03169146908532E-06,-61.8711204528809
2.03721236981653E-06,-62.0720481872559
2.04273327054774E-06,-62.2588272094727
2.04825417127895E-06,-62.4315376281738
2.05377507201016E-06,-62.5902519226074
2.05929597274137E-06,-62.7326049804688
2.06481687347258E-06,-62.849536895752
2.07033777420379E-06,-62.9433555603027
2.075858674935E-06,-63.0177230834961
2.08137957566621E-06,-63.0762825012207
2.08690047639742E-06,-63.122688293457
2.09242137712863E-06,-63.160587310791
2.09794227785984E-06,-63.1936378479004
2.10346317859105E-06,-63.2254905700684
2.10898407932226E-06,-63.2597923278809
2.11450498005347E-06,-63.3001937866211
2.12002588078468E-06,-63.3503494262695
2.12554678151589E-06,-63.4119415283203
2.1310676822471E-06,-63.4758186340332
2.13658858297831E-06,-63.5402793884277
2.14210948370952E-06,-63.605281829834
2.14763038444073E-06,-63.6707992553711
2.15315128517194E-06,-63.7368011474609
2.15867218590315E-06,-63.8032569885254
2.16419308663436E-06,-63.8701362609863
2.16971398736557E-06,-63.9374008178711
2.17523488809678E-06,-64.0050277709961
2.18075578882799E-06,-64.0729751586914
2.1862766895592E-06,-64.141227722168
2.19179759029041E-06,-64.2089080810547
2.19731849102162E-06,-64.2701797485352
2.20283939175283E-06,-64.3258285522461
2.20836029248404E-06,-64.3781661987305
2.21388119321525E-06,-64.4295043945313
2.21940209394646E-06,-64.4821624755859
2.22492299467767E-06,-64.5384521484375
2.23044389540888E-06,-64.600700378418
2.23596479614009E-06,-64.6712188720703
2.2414856968713E-06,-64.7523193359375
2.24700659760251E-06,-64.8463287353516
2.25252749833372E-06,-64.9555511474609
2.25804839906493E-06,-65.0802993774414
2.26356929979614E-06,-65.2010192871094
2.26909020052735E-06,-65.3165969848633
2.27461110125856E-06,-65.4326095581055
2.28013200198977E-06,-65.5546112060547
2.28565290272098E-06,-65.6881561279297
2.29117380345219E-06,-65.8388214111328
2.2966947041834E-06,-66.0121612548828
2.30221560491461E-06,-66.213737487793
2.30773650564582E-06,-66.4491119384766
2.31325740637703E-06,-66.7238540649414
2.31877830710824E-06,-67.0435104370117
2.32429920783945E-06,-67.4152145385742
2.32982010857066E-06,-67.8659820556641
2.33534100930187E-06,-68.3919067382813
2.34086191003308E-06,-68.9772872924805
2.34638281076429E-06,-69.6064071655273
2.3519037114955E-06,-70.2635650634766
2.35742461222671E-06,-70.9330444335938
2.36294551295792E-06,-71.5991516113281
2.36846641368913E-06,-72.2461624145508
2.37398731442034E-06,-72.8583755493164
2.37950821515155E-06,-73.4200820922852
2.38502911588276E-06,-73.9155731201172
2.39055001661397E-06,-74.3303375244141
2.39607091734518E-06,-74.6899871826172
2.40159181807639E-06,-75.0123062133789
2.4071127188076E-06,-75.2994918823242
2.41263361953881E-06,-75.5537490844727
2.41815452027002E-06,-75.7772521972656
2.42367542100123E-06,-75.9722137451172
2.42919632173244E-06,-76.1408233642578
2.43471722246365E-06,-76.2852783203125
2.44023812319486E-06,-76.4077682495117
2.44575902392607E-06,-76.5104827880859
2.45127992465728E-06,-76.5956344604492
2.45680082538849E-06,-76.6649398803711
2.4623217261197E-06,-76.6896286010742
2.46784262685091E-06,-76.6596069335938
2.47336352758212E-06,-76.5860900878906
2.47888442831333E-06,-76.4802551269531
2.48440532904454E-06,-76.3533172607422
2.48992622977575E-06,-76.2164611816406
2.49544713050696E-06,-76.0808944702148
2.50096803123817E-06,-75.9578094482422
2.50648893196938E-06,-75.8584060668945
2.51200983270059E-06,-75.7938842773438
2.5175307334318E-06,-75.7754364013672
2.52305163416301E-06,-75.8143310546875
2.52857253489422E-06,-75.9371719360352
2.53409343562543E-06,-76.1449813842773
2.53961433635665E-06,-76.4168014526367
2.54513523708785E-06,-76.731689453125
2.55065613781907E-06,-77.0686798095703
2.55617703855028E-06,-77.4068298339844
2.56169793928149E-06,-77.7251739501953
2.5672188400127E-06,-78.0027694702148
2.57273974074391E-06,-78.2186508178711
2.57826064147512E-06,-78.3518753051758
2.58378154220633E-06,-78.3814926147461
2.58930244293754E-06,-78.2865295410156
2.59482334366875E-06,-78.0499496459961
2.60034424439996E-06,-77.6833801269531
2.60586514513117E-06,-77.2093048095703
2.61138604586238E-06,-76.6501922607422
2.61690694659359E-06,-76.0285186767578
2.6224278473248E-06,-75.3667449951172
2.62794874805601E-06,-74.6873550415039
2.63346964878722E-06,-74.012825012207
2.63899054951843E-06,-73.365608215332
2.64451145024964E-06,-72.768196105957
2.65003235098085E-06,-72.2430572509766
2.65555325171206E-06,-71.8126525878906
2.66107415244327E-06,-71.4533538818359
2.66659505317448E-06,-71.1106643676758
2.67211595390569E-06,-70.7881927490234
2.6776368546369E-06,-70.4900360107422
2.68315775536811E-06,-70.2202682495117
2.68867865609932E-06,-69.9829788208008
2.69419955683053E-06,-69.7822418212891
2.69972045756174E-06,-69.6221618652344
2.70524135829295E-06,-69.5068054199219
2.71076225902416E-06,-69.4402618408203
2.71628315975537E-06,-69.4266204833984
2.72180406048658E-06,-69.4699630737305
