Trace
Swept SA
A.19.55,N9020B
508 AB2 B25 B40 B85 DP2 DP4 EP2 FS1 FS2 MPB RTL ,01
Segment,0
Number of Points,81920
Sweep Time,0.0004096
Start Frequency,2400000000
Stop Frequency,2400000000
Average Count,0
Average Type,LogPower(Video)
RBW,3000000
RBW Filter,Gaussian
RBW Filter BW,3dB
VBW,3000000
Sweep Type,Swept
X Axis Scale,Lin
PreAmp State,Off
PreAmp Band,Low
Trigger Source,Ext1
Trigger Level,1.2
Trigger Slope,Positive
Trigger Delay,1E-06
Phase Noise Optimization,Fast
Swept If Gain,Low
FFT If Gain,Autorange
RF Coupling,AC
FFT Width,411900
Ext Ref,10000000
Input,RF
RF Calibrator,Off
Attenuation,6
Ref Level Offset,0
External Gain,0
Trace Type,Clearwrite
Detector,Normal
Trace Math,Off
Trace Math Oper1,Trace5
Trace Math Oper2,Trace6
Trace Math Offset,0
Normalize,Off
Trace Name,Trace1
X Axis Units,s
Y Axis Units,dBm
DATA
0,-45.1698379516602
5.00006103590132E-09,-45.6834297180176
1.00001220718026E-08,-46.1751899719238
1.50001831077039E-08,-46.6418228149414
2.00002441436053E-08,-47.0800361633301
2.50003051795066E-08,-47.4865455627441
3.00003662154079E-08,-47.8580513000488
3.50004272513092E-08,-48.1912651062012
4.00004882872105E-08,-48.4828948974609
4.50005493231118E-08,-48.7296485900879
5.00006103590132E-08,-48.9282341003418
5.50006713949145E-08,-49.0753593444824
6.00007324308158E-08,-49.1647987365723
6.50007934667171E-08,-49.160717010498
7.00008545026184E-08,-49.0656204223633
7.50009155385197E-08,-48.8951644897461
8.00009765744211E-08,-48.6650009155273
8.50010376103224E-08,-48.3907852172852
9.00010986462237E-08,-48.0881614685059
9.5001159682125E-08,-47.7727928161621
1.00001220718026E-07,-47.4603233337402
1.05001281753928E-07,-47.1664123535156
1.10001342789829E-07,-46.9067077636719
1.1500140382573E-07,-46.6968650817871
1.20001464861632E-07,-46.5525360107422
1.25001525897533E-07,-46.489372253418
1.30001586933434E-07,-46.4938049316406
1.35001647969336E-07,-46.5391807556152
1.40001709005237E-07,-46.6215209960938
1.45001770041138E-07,-46.7368545532227
1.50001831077039E-07,-46.8812065124512
1.55001892112941E-07,-47.0506019592285
1.60001953148842E-07,-47.2410659790039
1.65002014184743E-07,-47.4486236572266
1.70002075220645E-07,-47.669303894043
1.75002136256546E-07,-47.8991241455078
1.80002197292447E-07,-48.1341171264648
1.85002258328349E-07,-48.3703079223633
1.9000231936425E-07,-48.6037216186523
1.95002380400151E-07,-48.8458137512207
2.00002441436053E-07,-49.139030456543
2.05002502471954E-07,-49.4753265380859
2.10002563507855E-07,-49.842643737793
2.15002624543757E-07,-50.2289237976074
2.20002685579658E-07,-50.6221122741699
2.25002746615559E-07,-51.0101509094238
2.30002807651461E-07,-51.3809852600098
2.35002868687362E-07,-51.7225570678711
2.40002929723263E-07,-52.0228080749512
2.45002990759165E-07,-52.2696838378906
2.50003051795066E-07,-52.4511299133301
2.55003112830967E-07,-52.5550842285156
2.60003173866868E-07,-52.5674705505371
2.6500323490277E-07,-52.4597511291504
2.70003295938671E-07,-52.2424621582031
2.75003356974572E-07,-51.9366760253906
2.80003418010474E-07,-51.5634765625
2.85003479046375E-07,-51.1439323425293
2.90003540082276E-07,-50.6991271972656
2.95003601118178E-07,-50.2501373291016
3.00003662154079E-07,-49.8180351257324
3.0500372318998E-07,-49.4239044189453
3.10003784225882E-07,-49.0888214111328
3.15003845261783E-07,-48.8338584899902
3.20003906297684E-07,-48.6800994873047
3.25003967333586E-07,-48.6486167907715
3.30004028369487E-07,-48.7510986328125
3.35004089405388E-07,-48.9718971252441
3.4000415044129E-07,-49.2910804748535
3.45004211477191E-07,-49.6887283325195
3.50004272513092E-07,-50.1449089050293
3.55004333548993E-07,-50.6396980285645
3.60004394584895E-07,-51.1531715393066
3.65004455620796E-07,-51.665397644043
3.70004516656697E-07,-52.1564483642578
3.75004577692599E-07,-52.6064033508301
3.800046387285E-07,-52.9953346252441
3.85004699764401E-07,-53.3033142089844
3.90004760800303E-07,-53.5104103088379
3.95004821836204E-07,-53.6121025085449
4.00004882872105E-07,-53.650318145752
4.05004943908007E-07,-53.6340484619141
4.10005004943908E-07,-53.5689163208008
4.15005065979809E-07,-53.4605293273926
4.20005127015711E-07,-53.3145065307617
4.25005188051612E-07,-53.1364593505859
4.30005249087513E-07,-52.9320106506348
4.35005310123415E-07,-52.7067680358887
4.40005371159316E-07,-52.4663505554199
4.45005432195217E-07,-52.2163734436035
4.50005493231119E-07,-51.9624519348145
4.5500555426702E-07,-51.7102012634277
4.60005615302921E-07,-51.4610443115234
4.65005676338822E-07,-51.167839050293
4.70005737374724E-07,-50.8248863220215
4.75005798410625E-07,-50.4437065124512
4.80005859446526E-07,-50.0358047485352
4.85005920482428E-07,-49.6126937866211
4.90005981518329E-07,-49.1858940124512
4.9500604255423E-07,-48.7669067382813
5.00006103590132E-07,-48.3672561645508
5.05006164626033E-07,-47.9984436035156
5.10006225661934E-07,-47.671989440918
5.15006286697836E-07,-47.3994064331055
5.20006347733737E-07,-47.1921997070313
5.25006408769638E-07,-47.0618896484375
5.3000646980554E-07,-47.0089836120605
5.35006530841441E-07,-47.0209693908691
5.40006591877342E-07,-47.0898208618164
5.45006652913243E-07,-47.2075080871582
5.50006713949145E-07,-47.3660011291504
5.55006774985046E-07,-47.5572738647461
5.60006836020948E-07,-47.7732963562012
5.65006897056849E-07,-48.0060424804688
5.7000695809275E-07,-48.2474822998047
5.75007019128651E-07,-48.4895896911621
5.80007080164553E-07,-48.7243347167969
5.85007141200454E-07,-48.9436912536621
5.90007202236355E-07,-49.1396293640137
5.95007263272257E-07,-49.3205223083496
6.00007324308158E-07,-49.5313873291016
6.05007385344059E-07,-49.7677192687988
6.10007446379961E-07,-50.0209159851074
6.15007507415862E-07,-50.2823677062988
6.20007568451763E-07,-50.5434646606445
6.25007629487665E-07,-50.795597076416
6.30007690523566E-07,-51.030158996582
6.35007751559467E-07,-51.2385406494141
6.40007812595369E-07,-51.4121322631836
6.4500787363127E-07,-51.5423278808594
6.50007934667171E-07,-51.6205139160156
6.55007995703072E-07,-51.6380920410156
6.60008056738974E-07,-51.5852737426758
6.65008117774875E-07,-51.4449234008789
6.70008178810776E-07,-51.2246017456055
6.75008239846678E-07,-50.9382209777832
6.80008300882579E-07,-50.599681854248
6.8500836191848E-07,-50.2228965759277
6.90008422954382E-07,-49.8217735290527
6.95008483990283E-07,-49.4102172851563
7.00008545026184E-07,-49.002140045166
7.05008606062086E-07,-48.611442565918
7.10008667097987E-07,-48.2520370483398
7.15008728133888E-07,-47.9378318786621
7.2000878916979E-07,-47.682731628418
7.25008850205691E-07,-47.5006446838379
7.30008911241592E-07,-47.3844833374023
7.35008972277494E-07,-47.3139114379883
7.40009033313395E-07,-47.2829856872559
7.45009094349296E-07,-47.285758972168
7.50009155385198E-07,-47.3162841796875
7.55009216421099E-07,-47.3686180114746
7.60009277457E-07,-47.4368095397949
7.65009338492901E-07,-47.5149154663086
7.70009399528803E-07,-47.5969886779785
7.75009460564704E-07,-47.6770820617676
7.80009521600605E-07,-47.7492485046387
7.85009582636507E-07,-47.807544708252
7.90009643672408E-07,-47.8460235595703
7.95009704708309E-07,-47.8668365478516
8.00009765744211E-07,-47.8921852111816
8.05009826780112E-07,-47.9219512939453
8.10009887816013E-07,-47.9540748596191
8.15009948851915E-07,-47.9864845275879
8.20010009887816E-07,-48.0171127319336
8.25010070923717E-07,-48.0439033508301
8.30010131959619E-07,-48.0647811889648
8.3501019299552E-07,-48.0776824951172
8.40010254031421E-07,-48.0805435180664
8.45010315067323E-07,-48.0712966918945
8.50010376103224E-07,-48.0478782653809
8.55010437139125E-07,-48.0082206726074
8.60010498175026E-07,-47.9487266540527
8.65010559210928E-07,-47.8505859375
8.70010620246829E-07,-47.7154121398926
8.7501068128273E-07,-47.5517425537109
8.80010742318632E-07,-47.3680953979492
8.85010803354533E-07,-47.1730003356934
8.90010864390434E-07,-46.974983215332
8.95010925426336E-07,-46.7825736999512
9.00010986462237E-07,-46.6042938232422
9.05011047498138E-07,-46.4486770629883
9.1001110853404E-07,-46.3242454528809
9.15011169569941E-07,-46.2395248413086
9.20011230605842E-07,-46.2030410766602
9.25011291641744E-07,-46.2233276367188
9.30011352677645E-07,-46.3052978515625
9.35011413713546E-07,-46.4427528381348
9.40011474749448E-07,-46.6275367736816
9.45011535785349E-07,-46.8514938354492
9.5001159682125E-07,-47.1064758300781
9.55011657857151E-07,-47.3843193054199
9.60011718893053E-07,-47.6768798828125
9.65011779928954E-07,-47.9759902954102
9.70011840964855E-07,-48.2735061645508
9.75011902000757E-07,-48.5612678527832
9.80011963036658E-07,-48.8311233520508
9.85012024072559E-07,-49.0749168395996
9.90012085108461E-07,-49.2844924926758
9.95012146144362E-07,-49.4647445678711
1.00001220718026E-06,-49.6514434814453
1.00501226821616E-06,-49.8428955078125
1.01001232925207E-06,-50.0342025756836
1.01501239028797E-06,-50.2204666137695
1.02001245132387E-06,-50.396800994873
1.02501251235977E-06,-50.5583038330078
1.03001257339567E-06,-50.700080871582
1.03501263443157E-06,-50.8172378540039
1.04001269546747E-06,-50.9048767089844
1.04501275650338E-06,-50.9581031799316
1.05001281753928E-06,-50.9720268249512
1.05501287857518E-06,-50.9417457580566
1.06001293961108E-06,-50.8605842590332
1.06501300064698E-06,-50.7056655883789
1.07001306168288E-06,-50.4811172485352
1.07501312271878E-06,-50.1994819641113
1.08001318375468E-06,-49.8733062744141
1.08501324479059E-06,-49.5151290893555
1.09001330582649E-06,-49.1375007629395
1.09501336686239E-06,-48.7529640197754
1.10001342789829E-06,-48.3740577697754
1.10501348893419E-06,-48.0133323669434
1.11001354997009E-06,-47.6833305358887
1.11501361100599E-06,-47.3965911865234
1.1200136720419E-06,-47.1656646728516
1.1250137330778E-06,-47.0030937194824
1.1300137941137E-06,-46.9036026000977
1.1350138551496E-06,-46.849609375
1.1400139161855E-06,-46.8352088928223
1.1450139772214E-06,-46.8544921875
1.1500140382573E-06,-46.9015502929688
1.1550140992932E-06,-46.9704704284668
1.16001416032911E-06,-47.055347442627
1.16501422136501E-06,-47.1502685546875
1.17001428240091E-06,-47.2493286132813
1.17501434343681E-06,-47.3466148376465
1.18001440447271E-06,-47.4362182617188
1.18501446550861E-06,-47.5122299194336
1.19001452654451E-06,-47.5687408447266
1.19501458758041E-06,-47.6082229614258
1.20001464861632E-06,-47.6536140441895
1.20501470965222E-06,-47.7045516967773
1.21001477068812E-06,-47.7586364746094
1.21501483172402E-06,-47.8134727478027
1.22001489275992E-06,-47.8666572570801
1.22501495379582E-06,-47.9157943725586
1.23001501483172E-06,-47.9584846496582
1.23501507586763E-06,-47.9923362731934
1.24001513690353E-06,-48.0149459838867
1.24501519793943E-06,-48.0239143371582
1.25001525897533E-06,-48.0168495178223
1.25501532001123E-06,-47.9913482666016
1.26001538104713E-06,-47.9435958862305
1.26501544208303E-06,-47.8559455871582
1.27001550311893E-06,-47.7303428649902
1.27501556415484E-06,-47.5751953125
1.28001562519074E-06,-47.39892578125
1.28501568622664E-06,-47.2099456787109
1.29001574726254E-06,-47.016674041748
1.29501580829844E-06,-46.8275260925293
1.30001586933434E-06,-46.6509170532227
1.30501593037024E-06,-46.4952621459961
1.31001599140614E-06,-46.3689804077148
1.31501605244205E-06,-46.2804832458496
1.32001611347795E-06,-46.2381896972656
1.32501617451385E-06,-46.2505187988281
1.33001623554975E-06,-46.3187217712402
1.33501629658565E-06,-46.4342498779297
1.34001635762155E-06,-46.5908050537109
1.34501641865745E-06,-46.7820892333984
1.35001647969336E-06,-47.0018005371094
1.35501654072926E-06,-47.2436447143555
1.36001660176516E-06,-47.5013236999512
1.36501666280106E-06,-47.7685394287109
1.37001672383696E-06,-48.038990020752
1.37501678487286E-06,-48.3063850402832
1.38001684590876E-06,-48.5644187927246
1.38501690694466E-06,-48.8067932128906
1.39001696798057E-06,-49.0272178649902
1.39501702901647E-06,-49.2330665588379
1.40001709005237E-06,-49.4618949890137
1.40501715108827E-06,-49.7095260620117
1.41001721212417E-06,-49.9683380126953
1.41501727316007E-06,-50.2307205200195
1.42001733419597E-06,-50.4890441894531
1.42501739523188E-06,-50.7356986999512
1.43001745626778E-06,-50.963062286377
1.43501751730368E-06,-51.1635131835938
1.44001757833958E-06,-51.3294372558594
1.44501763937548E-06,-51.4532127380371
1.45001770041138E-06,-51.5272178649902
1.45501776144728E-06,-51.5438423156738
1.46001782248318E-06,-51.4943580627441
1.46501788351909E-06,-51.3628425598145
1.47001794455499E-06,-51.1559715270996
1.47501800559089E-06,-50.8863258361816
1.48001806662679E-06,-50.5664825439453
1.48501812766269E-06,-50.2090225219727
1.49001818869859E-06,-49.8265190124512
1.49501824973449E-06,-49.4315490722656
1.5000183107704E-06,-49.036693572998
1.5050183718063E-06,-48.6545295715332
1.5100184328422E-06,-48.2976303100586
1.5150184938781E-06,-47.9785766601563
1.520018554914E-06,-47.7099494934082
1.5250186159499E-06,-47.504322052002
1.5300186769858E-06,-47.3621101379395
1.5350187380217E-06,-47.2695426940918
1.54001879905761E-06,-47.2179260253906
1.54501886009351E-06,-47.1985511779785
1.55001892112941E-06,-47.2027244567871
1.55501898216531E-06,-47.221736907959
1.56001904320121E-06,-47.246898651123
1.56501910423711E-06,-47.2695007324219
1.57001916527301E-06,-47.2808456420898
1.57501922630891E-06,-47.2722282409668
1.58001928734482E-06,-47.2349586486816
1.58501934838072E-06,-47.1603240966797
1.59001940941662E-06,-47.0396308898926
1.59501947045252E-06,-46.8723106384277
1.60001953148842E-06,-46.6805686950684
1.60501959252432E-06,-46.4672012329102
1.61001965356022E-06,-46.2331619262695
1.61501971459613E-06,-45.9793930053711
1.62001977563203E-06,-45.706844329834
1.62501983666793E-06,-45.4164581298828
1.63001989770383E-06,-45.1091842651367
1.63501995873973E-06,-44.7859725952148
1.64002001977563E-06,-44.4477691650391
1.64502008081153E-06,-44.095516204834
1.65002014184743E-06,-43.7301635742188
1.65502020288334E-06,-43.3526573181152
1.66002026391924E-06,-42.9623107910156
1.66502032495514E-06,-42.540283203125
1.67002038599104E-06,-42.0854721069336
1.67502044702694E-06,-41.6036605834961
1.68002050806284E-06,-41.1006355285645
1.68502056909874E-06,-40.5821838378906
1.69002063013465E-06,-40.0540924072266
1.69502069117055E-06,-39.5221481323242
1.70002075220645E-06,-38.9921379089355
1.70502081324235E-06,-38.4698448181152
1.71002087427825E-06,-37.9610633850098
1.71502093531415E-06,-37.4715690612793
1.72002099635005E-06,-37.0071563720703
1.72502105738595E-06,-36.5736083984375
1.73002111842186E-06,-36.1586570739746
1.73502117945776E-06,-35.7475471496582
1.74002124049366E-06,-35.3423385620117
1.74502130152956E-06,-34.9450874328613
1.75002136256546E-06,-34.5578575134277
1.75502142360136E-06,-34.1827049255371
1.76002148463726E-06,-33.8216934204102
1.76502154567316E-06,-33.4768753051758
1.77002160670907E-06,-33.1503143310547
1.77502166774497E-06,-32.8440704345703
1.78002172878087E-06,-32.5602035522461
1.78502178981677E-06,-32.3007698059082
1.79002185085267E-06,-32.0678291320801
1.79502191188857E-06,-31.8605632781982
1.80002197292447E-06,-31.6710872650146
1.80502203396038E-06,-31.4994964599609
1.81002209499628E-06,-31.3465843200684
1.81502215603218E-06,-31.2131443023682
1.82002221706808E-06,-31.0999660491943
1.82502227810398E-06,-31.0078449249268
1.83002233913988E-06,-30.9375705718994
1.83502240017578E-06,-30.8899364471436
1.84002246121168E-06,-30.8657379150391
1.84502252224759E-06,-30.8657646179199
1.85002258328349E-06,-30.8908081054688
1.85502264431939E-06,-30.9416637420654
1.86002270535529E-06,-31.0189151763916
1.86502276639119E-06,-31.1204395294189
1.87002282742709E-06,-31.245491027832
1.87502288846299E-06,-31.3940982818604
1.8800229494989E-06,-31.5662860870361
1.8850230105348E-06,-31.7620811462402
1.8900230715707E-06,-31.9815063476563
1.8950231326066E-06,-32.2245941162109
1.9000231936425E-06,-32.4913635253906
1.9050232546784E-06,-32.7818412780762
1.9100233157143E-06,-33.0960578918457
1.9150233767502E-06,-33.4340400695801
1.92002343778611E-06,-33.7958068847656
1.92502349882201E-06,-34.1813926696777
1.93002355985791E-06,-34.6076812744141
1.93502362089381E-06,-35.0860595703125
1.94002368192971E-06,-35.6082916259766
1.94502374296561E-06,-36.1661415100098
1.95002380400151E-06,-36.7513809204102
1.95502386503741E-06,-37.3557662963867
1.96002392607332E-06,-37.9710693359375
1.96502398710922E-06,-38.589054107666
1.97002404814512E-06,-39.2014846801758
1.97502410918102E-06,-39.8001251220703
1.98002417021692E-06,-40.3767433166504
1.98502423125282E-06,-40.9231033325195
1.99002429228872E-06,-41.4309730529785
1.99502435332463E-06,-41.9046897888184
2.00002441436053E-06,-42.3787040710449
2.00502447539643E-06,-42.8517837524414
2.01002453643233E-06,-43.319637298584
2.01502459746823E-06,-43.7779579162598
2.02002465850413E-06,-44.2224502563477
2.02502471954003E-06,-44.6488151550293
2.03002478057593E-06,-45.0527534484863
2.03502484161184E-06,-45.4299659729004
2.04002490264774E-06,-45.7761535644531
2.04502496368364E-06,-46.0870170593262
2.05002502471954E-06,-46.3582534790039
2.05502508575544E-06,-46.5855712890625
2.06002514679134E-06,-46.7629699707031
2.06502520782724E-06,-46.8688583374023
2.07002526886315E-06,-46.9068412780762
2.07502532989905E-06,-46.8884620666504
2.08002539093495E-06,-46.8252716064453
2.08502545197085E-06,-46.728816986084
2.09002551300675E-06,-46.6106452941895
2.09502557404265E-06,-46.482307434082
2.10002563507855E-06,-46.3553466796875
2.10502569611445E-06,-46.2413177490234
2.11002575715036E-06,-46.1517601013184
2.11502581818626E-06,-46.0982284545898
2.12002587922216E-06,-46.0922660827637
2.12502594025806E-06,-46.1454238891602
2.13002600129396E-06,-46.248706817627
2.13502606232986E-06,-46.3831481933594
2.14002612336576E-06,-46.5453071594238
2.14502618440166E-06,-46.7317657470703
2.15002624543757E-06,-46.9390907287598
2.15502630647347E-06,-47.1638526916504
2.16002636750937E-06,-47.4026260375977
2.16502642854527E-06,-47.6519775390625
2.17002648958117E-06,-47.9084854125977
2.17502655061707E-06,-48.1687164306641
2.18002661165297E-06,-48.4292411804199
2.18502667268888E-06,-48.6866340637207
2.19002673372478E-06,-48.9374656677246
2.19502679476068E-06,-49.1913566589355
2.20002685579658E-06,-49.4841957092285
2.20502691683248E-06,-49.8092460632324
2.21002697786838E-06,-50.1563911437988
2.21502703890428E-06,-50.5155143737793
2.22002709994018E-06,-50.8764915466309
2.22502716097609E-06,-51.2292098999023
2.23002722201199E-06,-51.5635414123535
2.23502728304789E-06,-51.8693733215332
2.24002734408379E-06,-52.136589050293
2.24502740511969E-06,-52.3550605773926
2.25002746615559E-06,-52.5146751403809
2.25502752719149E-06,-52.6053123474121
2.2600275882274E-06,-52.6146202087402
2.2650276492633E-06,-52.512378692627
2.2700277102992E-06,-52.3073463439941
2.2750277713351E-06,-52.0194206237793
2.280027832371E-06,-51.6685104370117
2.2850278934069E-06,-51.2745208740234
2.2900279544428E-06,-50.8573570251465
2.2950280154787E-06,-50.4369163513184
2.30002807651461E-06,-50.0331115722656
2.30502813755051E-06,-49.665843963623
2.31002819858641E-06,-49.3550186157227
2.31502825962231E-06,-49.1205368041992
2.32002832065821E-06,-48.982307434082
2.32502838169411E-06,-48.9602317810059
2.33002844273001E-06,-49.0651168823242
2.33502850376592E-06,-49.2820434570313
2.34002856480182E-06,-49.5922889709473
2.34502862583772E-06,-49.9771575927734
2.35002868687362E-06,-50.4179344177246
2.35502874790952E-06,-50.8959121704102
2.36002880894542E-06,-51.3923835754395
2.36502886998132E-06,-51.8886413574219
2.37002893101722E-06,-52.3659744262695
2.37502899205313E-06,-52.8056755065918
2.38002905308903E-06,-53.189037322998
2.38502911412493E-06,-53.4973526000977
2.39002917516083E-06,-53.7119140625
2.39502923619673E-06,-53.829288482666
2.40002929723263E-06,-53.89111328125
2.40502935826853E-06,-53.9051780700684
2.41002941930443E-06,-53.8758773803711
2.41502948034034E-06,-53.8076019287109
2.42002954137624E-06,-53.7047538757324
2.42502960241214E-06,-53.5717277526855
2.43002966344804E-06,-53.4129104614258
2.43502972448394E-06,-53.2327079772949
2.44002978551984E-06,-53.0355033874512
2.44502984655574E-06,-52.8257026672363
2.45002990759165E-06,-52.6076927185059
2.45502996862755E-06,-52.385871887207
2.46003002966345E-06,-52.1605415344238
2.46503009069935E-06,-51.8852348327637
2.47003015173525E-06,-51.5553703308105
