Trace
Swept SA
A.19.55,N9020B
508 AB2 B25 B40 B85 DP2 DP4 EP2 FS1 FS2 MPB RTL ,01
Segment,0
Number of Points,81920
Sweep Time,0.0004096
Start Frequency,2400000000
Stop Frequency,2400000000
Average Count,0
Average Type,LogPower(Video)
RBW,3000000
RBW Filter,Gaussian
RBW Filter BW,3dB
VBW,3000000
Sweep Type,Swept
X Axis Scale,Lin
PreAmp State,Off
PreAmp Band,Low
Trigger Source,Ext1
Trigger Level,1.2
Trigger Slope,Positive
Trigger Delay,1E-06
Phase Noise Optimization,Fast
Swept If Gain,Low
FFT If Gain,Autorange
RF Coupling,AC
FFT Width,411900
Ext Ref,10000000
Input,RF
RF Calibrator,Off
Attenuation,6
Ref Level Offset,0
External Gain,0
Trace Type,Clearwrite
Detector,Normal
Trace Math,Off
Trace Math Oper1,Trace5
Trace Math Oper2,Trace6
Trace Math Offset,0
Normalize,Off
Trace Name,Trace1
X Axis Units,s
Y Axis Units,dBm
DATA
0,-55.2175903320313
5.00006103590132E-09,-56.1240310668945
1.00001220718026E-08,-57.0859832763672
1.50001831077039E-08,-58.0819091796875
2.00002441436053E-08,-59.0902633666992
2.50003051795066E-08,-60.0895118713379
3.00003662154079E-08,-61.0581130981445
3.50004272513092E-08,-61.9745254516602
4.00004882872105E-08,-62.817211151123
4.50005493231118E-08,-63.5646286010742
5.00006103590132E-08,-64.1952438354492
5.50006713949145E-08,-64.6875152587891
6.00007324308158E-08,-65.0197448730469
6.50007934667171E-08,-65.1817626953125
7.00008545026184E-08,-65.1929016113281
7.50009155385197E-08,-65.0764312744141
8.00009765744211E-08,-64.855598449707
8.50010376103224E-08,-64.5536727905273
9.00010986462237E-08,-64.1939086914063
9.5001159682125E-08,-63.799560546875
1.00001220718026E-07,-63.3938903808594
1.05001281753928E-07,-63.0001564025879
1.10001342789829E-07,-62.6416206359863
1.1500140382573E-07,-62.3415374755859
1.20001464861632E-07,-62.1231651306152
1.25001525897533E-07,-62.0097618103027
1.30001586933434E-07,-61.970085144043
1.35001647969336E-07,-61.95703125
1.40001709005237E-07,-61.9700927734375
1.45001770041138E-07,-62.0087509155273
1.50001831077039E-07,-62.0724983215332
1.55001892112941E-07,-62.160816192627
1.60001953148842E-07,-62.273193359375
1.65002014184743E-07,-62.4091148376465
1.70002075220645E-07,-62.5680694580078
1.75002136256546E-07,-62.7495460510254
1.80002197292447E-07,-62.9530258178711
1.85002258328349E-07,-63.1779975891113
1.9000231936425E-07,-63.4239463806152
1.95002380400151E-07,-63.7080726623535
2.00002441436053E-07,-64.0791778564453
2.05002502471954E-07,-64.5237121582031
2.10002563507855E-07,-65.0233688354492
2.15002624543757E-07,-65.5598373413086
2.20002685579658E-07,-66.1148147583008
2.25002746615559E-07,-66.6699981689453
2.30002807651461E-07,-67.2070693969727
2.35002868687362E-07,-67.7077255249023
2.40002929723263E-07,-68.1536636352539
2.45002990759165E-07,-68.5265655517578
2.50003051795066E-07,-68.8081359863281
2.55003112830967E-07,-68.9800643920898
2.60003173866868E-07,-69.0233001708984
2.6500323490277E-07,-68.9219284057617
2.70003295938671E-07,-68.6923065185547
2.75003356974572E-07,-68.3567504882813
2.80003418010474E-07,-67.9375991821289
2.85003479046375E-07,-67.4571685791016
2.90003540082276E-07,-66.9378051757813
2.95003601118178E-07,-66.4018249511719
3.00003662154079E-07,-65.8715591430664
3.0500372318998E-07,-65.3693313598633
3.10003784225882E-07,-64.91748046875
3.15003845261783E-07,-64.5383224487305
3.20003906297684E-07,-64.2541961669922
3.25003967333586E-07,-64.0874252319336
3.30004028369487E-07,-64.0260543823242
3.35004089405388E-07,-64.0370407104492
3.4000415044129E-07,-64.1111297607422
3.45004211477191E-07,-64.2390594482422
3.50004272513092E-07,-64.4115447998047
3.55004333548993E-07,-64.6193313598633
3.60004394584895E-07,-64.853157043457
3.65004455620796E-07,-65.1037368774414
3.70004516656697E-07,-65.3618240356445
3.75004577692599E-07,-65.6181335449219
3.800046387285E-07,-65.863410949707
3.85004699764401E-07,-66.08837890625
3.90004760800303E-07,-66.2837829589844
3.95004821836204E-07,-66.4577255249023
4.00004882872105E-07,-66.6578750610352
4.05004943908007E-07,-66.8802719116211
4.10005004943908E-07,-67.1166534423828
4.15005065979809E-07,-67.3587341308594
4.20005127015711E-07,-67.5982360839844
4.25005188051612E-07,-67.8268737792969
4.30005249087513E-07,-68.0363845825195
4.35005310123415E-07,-68.2184753417969
4.40005371159316E-07,-68.3648681640625
4.45005432195217E-07,-68.4673004150391
4.50005493231119E-07,-68.5174713134766
4.5500555426702E-07,-68.5071182250977
4.60005615302921E-07,-68.426383972168
4.65005676338822E-07,-68.2534713745117
4.70005737374724E-07,-67.9955749511719
4.75005798410625E-07,-67.6679458618164
4.80005859446526E-07,-67.2858428955078
4.85005920482428E-07,-66.8645095825195
4.90005981518329E-07,-66.4192047119141
4.9500604255423E-07,-65.9651718139648
5.00006103590132E-07,-65.5176620483398
5.05006164626033E-07,-65.0919342041016
5.10006225661934E-07,-64.7032241821289
5.15006286697836E-07,-64.3667984008789
5.20006347733737E-07,-64.097900390625
5.25006408769638E-07,-63.9117774963379
5.3000646980554E-07,-63.7891502380371
5.35006530841441E-07,-63.6999397277832
5.40006591877342E-07,-63.6432304382324
5.45006652913243E-07,-63.6180992126465
5.50006713949145E-07,-63.6236228942871
5.55006774985046E-07,-63.6588897705078
5.60006836020948E-07,-63.7229690551758
5.65006897056849E-07,-63.81494140625
5.7000695809275E-07,-63.9338912963867
5.75007019128651E-07,-64.0788955688477
5.80007080164553E-07,-64.2490310668945
5.85007141200454E-07,-64.4433822631836
5.90007202236355E-07,-64.661018371582
5.95007263272257E-07,-64.9204711914063
6.00007324308158E-07,-65.2752990722656
6.05007385344059E-07,-65.7110137939453
6.10007446379961E-07,-66.2079162597656
6.15007507415862E-07,-66.7462921142578
6.20007568451763E-07,-67.3064422607422
6.25007629487665E-07,-67.8686752319336
6.30007690523566E-07,-68.4132766723633
6.35007751559467E-07,-68.9205551147461
6.40007812595369E-07,-69.3707962036133
6.4500787363127E-07,-69.7443008422852
6.50007934667171E-07,-70.021369934082
6.55007995703072E-07,-70.1822967529297
6.60008056738974E-07,-70.2074203491211
6.65008117774875E-07,-70.0894393920898
6.70008178810776E-07,-69.846076965332
6.75008239846678E-07,-69.4979019165039
6.80008300882579E-07,-69.0654678344727
6.8500836191848E-07,-68.5693359375
6.90008422954382E-07,-68.0300750732422
6.95008483990283E-07,-67.4682388305664
7.00008545026184E-07,-66.9043884277344
7.05008606062086E-07,-66.3590850830078
7.10008667097987E-07,-65.852897644043
7.15008728133888E-07,-65.4063720703125
7.2000878916979E-07,-65.0400848388672
7.25008850205691E-07,-64.7745971679688
7.30008911241592E-07,-64.5916519165039
7.35008972277494E-07,-64.4559783935547
7.40009033313395E-07,-64.3625411987305
7.45009094349296E-07,-64.3063354492188
7.50009155385198E-07,-64.2823257446289
7.55009216421099E-07,-64.2854995727539
7.60009277457E-07,-64.3108367919922
7.65009338492901E-07,-64.3533172607422
7.70009399528803E-07,-64.4079208374023
7.75009460564704E-07,-64.4696273803711
7.80009521600605E-07,-64.5334091186523
7.85009582636507E-07,-64.5942611694336
7.90009643672408E-07,-64.6471557617188
7.95009704708309E-07,-64.697265625
8.00009765744211E-07,-64.772590637207
8.05009826780112E-07,-64.8703536987305
8.10009887816013E-07,-64.985237121582
8.15009948851915E-07,-65.1119232177734
8.20010009887816E-07,-65.2450790405273
8.25010070923717E-07,-65.3794021606445
8.30010131959619E-07,-65.5095520019531
8.3501019299552E-07,-65.6302185058594
8.40010254031421E-07,-65.7360763549805
8.45010315067323E-07,-65.8218078613281
8.50010376103224E-07,-65.8820877075195
8.55010437139125E-07,-65.9115905761719
8.60010498175026E-07,-65.9042510986328
8.65010559210928E-07,-65.8490753173828
8.70010620246829E-07,-65.7507476806641
8.7501068128273E-07,-65.6179885864258
8.80010742318632E-07,-65.4595336914063
8.85010803354533E-07,-65.2841186523438
8.90010864390434E-07,-65.100471496582
8.95010925426336E-07,-64.9173355102539
9.00010986462237E-07,-64.7434387207031
9.05011047498138E-07,-64.587516784668
9.1001110853404E-07,-64.4582977294922
9.15011169569941E-07,-64.3645095825195
9.20011230605842E-07,-64.3149032592773
9.25011291641744E-07,-64.3181991577148
9.30011352677645E-07,-64.3764801025391
9.35011413713546E-07,-64.4813842773438
9.40011474749448E-07,-64.6260147094727
9.45011535785349E-07,-64.8034591674805
9.5001159682125E-07,-65.0067901611328
9.55011657857151E-07,-65.2291107177734
9.60011718893053E-07,-65.4635009765625
9.65011779928954E-07,-65.7030487060547
9.70011840964855E-07,-65.9408493041992
9.75011902000757E-07,-66.1699829101563
9.80011963036658E-07,-66.3835372924805
9.85012024072559E-07,-66.5746078491211
9.90012085108461E-07,-66.7362747192383
9.95012146144362E-07,-66.8738021850586
1.00001220718026E-06,-67.0205307006836
1.00501226821616E-06,-67.1741638183594
1.01001232925207E-06,-67.3293609619141
1.01501239028797E-06,-67.4808044433594
1.02001245132387E-06,-67.6231689453125
1.02501251235977E-06,-67.7511291503906
1.03001257339567E-06,-67.8593673706055
1.03501263443157E-06,-67.9425430297852
1.04001269546747E-06,-67.9953384399414
1.04501275650338E-06,-68.0124282836914
1.05001281753928E-06,-67.9884948730469
1.05501287857518E-06,-67.9181976318359
1.06001293961108E-06,-67.7943344116211
1.06501300064698E-06,-67.5926132202148
1.07001306168288E-06,-67.3175277709961
1.07501312271878E-06,-66.9825134277344
1.08001318375468E-06,-66.6009979248047
1.08501324479059E-06,-66.1864395141602
1.09001330582649E-06,-65.7522506713867
1.09501336686239E-06,-65.311882019043
1.10001342789829E-06,-64.8787689208984
1.10501348893419E-06,-64.4663391113281
1.11001354997009E-06,-64.0880355834961
1.11501361100599E-06,-63.7572898864746
1.1200136720419E-06,-63.4875411987305
1.1250137330778E-06,-63.2922286987305
1.1300137941137E-06,-63.1632995605469
1.1350138551496E-06,-63.0803108215332
1.1400139161855E-06,-63.0380973815918
1.1450139772214E-06,-63.0314979553223
1.1500140382573E-06,-63.055347442627
1.1550140992932E-06,-63.1044807434082
1.16001416032911E-06,-63.1737327575684
1.16501422136501E-06,-63.2579383850098
1.17001428240091E-06,-63.351936340332
1.17501434343681E-06,-63.4505615234375
1.18001440447271E-06,-63.5486450195313
1.18501446550861E-06,-63.6410331726074
1.19001452654451E-06,-63.7225532531738
1.19501458758041E-06,-63.7982597351074
1.20001464861632E-06,-63.8961982727051
1.20501470965222E-06,-64.0137329101563
1.21001477068812E-06,-64.1456909179688
1.21501483172402E-06,-64.2868728637695
1.22001489275992E-06,-64.4321060180664
1.22501495379582E-06,-64.5762100219727
1.23001501483172E-06,-64.7139892578125
1.23501507586763E-06,-64.8402633666992
1.24001513690353E-06,-64.9498596191406
1.24501519793943E-06,-65.0375747680664
1.25001525897533E-06,-65.0982437133789
1.25501532001123E-06,-65.1266784667969
1.26001538104713E-06,-65.1170501708984
1.26501544208303E-06,-65.0598754882813
1.27001550311893E-06,-64.959716796875
1.27501556415484E-06,-64.8246536254883
1.28001562519074E-06,-64.6627655029297
1.28501568622664E-06,-64.4821472167969
1.29001574726254E-06,-64.2908782958984
1.29501580829844E-06,-64.0970306396484
1.30001586933434E-06,-63.9087028503418
1.30501593037024E-06,-63.7339668273926
1.31001599140614E-06,-63.5809135437012
1.31501605244205E-06,-63.4576187133789
1.32001611347795E-06,-63.3721694946289
1.32501617451385E-06,-63.332649230957
1.33001623554975E-06,-63.3267288208008
1.33501629658565E-06,-63.3370475769043
1.34001635762155E-06,-63.364143371582
1.34501641865745E-06,-63.4085540771484
1.35001647969336E-06,-63.4708099365234
1.35501654072926E-06,-63.5514526367188
1.36001660176516E-06,-63.6510124206543
1.36501666280106E-06,-63.7700309753418
1.37001672383696E-06,-63.9090385437012
1.37501678487286E-06,-64.0685729980469
1.38001684590876E-06,-64.2491683959961
1.38501690694466E-06,-64.4513702392578
1.39001696798057E-06,-64.6756973266602
1.39501702901647E-06,-64.9389801025391
1.40001709005237E-06,-65.2861328125
1.40501715108827E-06,-65.7036056518555
1.41001721212417E-06,-66.1734619140625
1.41501727316007E-06,-66.677734375
1.42001733419597E-06,-67.1984939575195
1.42501739523188E-06,-67.7177886962891
1.43001745626778E-06,-68.2176513671875
1.43501751730368E-06,-68.6801528930664
1.44001757833958E-06,-69.0873336791992
1.44501763937548E-06,-69.4212493896484
1.45001770041138E-06,-69.663948059082
1.45501776144728E-06,-69.7974853515625
1.46001782248318E-06,-69.8040618896484
1.46501788351909E-06,-69.6784973144531
1.47001794455499E-06,-69.4369659423828
1.47501800559089E-06,-69.0976791381836
1.48001806662679E-06,-68.6788482666016
1.48501812766269E-06,-68.1986846923828
1.49001818869859E-06,-67.675407409668
1.49501824973449E-06,-67.1272277832031
1.5000183107704E-06,-66.5723495483398
1.5050183718063E-06,-66.0289993286133
1.5100184328422E-06,-65.5153884887695
1.5150184938781E-06,-65.0497283935547
1.520018554914E-06,-64.6502227783203
1.5250186159499E-06,-64.3350982666016
1.5300186769858E-06,-64.0966949462891
1.5350187380217E-06,-63.909496307373
1.54001879905761E-06,-63.7649116516113
1.54501886009351E-06,-63.6543617248535
1.55001892112941E-06,-63.5692710876465
1.55501898216531E-06,-63.5010528564453
1.56001904320121E-06,-63.4411277770996
1.56501910423711E-06,-63.3809127807617
1.57001916527301E-06,-63.3118286132813
1.57501922630891E-06,-63.2252883911133
1.58001928734482E-06,-63.112720489502
1.58501934838072E-06,-62.9655303955078
1.59001940941662E-06,-62.775146484375
1.59501947045252E-06,-62.541561126709
1.60001953148842E-06,-62.2882041931152
1.60501959252432E-06,-62.0173988342285
1.61001965356022E-06,-61.7294883728027
1.61501971459613E-06,-61.4248085021973
1.62001977563203E-06,-61.1037063598633
1.62501983666793E-06,-60.7665252685547
1.63001989770383E-06,-60.4136047363281
1.63501995873973E-06,-60.0452919006348
1.64002001977563E-06,-59.661922454834
1.64502008081153E-06,-59.2638397216797
1.65002014184743E-06,-58.851390838623
1.65502020288334E-06,-58.4249153137207
1.66002026391924E-06,-57.983283996582
1.66502032495514E-06,-57.5093612670898
1.67002038599104E-06,-57.0026054382324
1.67502044702694E-06,-56.4687614440918
1.68002050806284E-06,-55.9135627746582
1.68502056909874E-06,-55.3427467346191
1.69002063013465E-06,-54.7620582580566
1.69502069117055E-06,-54.1772270202637
1.70002075220645E-06,-53.5939979553223
1.70502081324235E-06,-53.0181045532227
1.71002087427825E-06,-52.4552879333496
1.71502093531415E-06,-51.9112815856934
1.72002099635005E-06,-51.3918304443359
1.72502105738595E-06,-50.9026679992676
1.73002111842186E-06,-50.4314765930176
1.73502117945776E-06,-49.9635200500488
1.74002124049366E-06,-49.5009155273438
1.74502130152956E-06,-49.045783996582
1.75002136256546E-06,-48.6002311706543
1.75502142360136E-06,-48.1663818359375
1.76002148463726E-06,-47.7463531494141
1.76502154567316E-06,-47.3422508239746
1.77002160670907E-06,-46.9562034606934
1.77502166774497E-06,-46.5903167724609
1.78002172878087E-06,-46.2467155456543
1.78502178981677E-06,-45.9275093078613
1.79002185085267E-06,-45.6348152160645
1.79502191188857E-06,-45.367805480957
1.80002197292447E-06,-45.1184043884277
1.80502203396038E-06,-44.8867073059082
1.81002209499628E-06,-44.6735076904297
1.81502215603218E-06,-44.4796180725098
1.82002221706808E-06,-44.305835723877
1.82502227810398E-06,-44.1529655456543
1.83002233913988E-06,-44.0218086242676
1.83502240017578E-06,-43.9131660461426
1.84002246121168E-06,-43.8278465270996
1.84502252224759E-06,-43.7666435241699
1.85002258328349E-06,-43.7303695678711
1.85502264431939E-06,-43.7198257446289
1.86002270535529E-06,-43.7354545593262
1.86502276639119E-06,-43.7734375
1.87002282742709E-06,-43.8329887390137
1.87502288846299E-06,-43.914737701416
1.8800229494989E-06,-44.0192909240723
1.8850230105348E-06,-44.1472778320313
1.8900230715707E-06,-44.2993125915527
1.8950231326066E-06,-44.4760093688965
1.9000231936425E-06,-44.6779937744141
1.9050232546784E-06,-44.9058799743652
1.9100233157143E-06,-45.1602897644043
1.9150233767502E-06,-45.4418411254883
1.92002343778611E-06,-45.751148223877
1.92502349882201E-06,-46.0888328552246
1.93002355985791E-06,-46.4631767272949
1.93502362089381E-06,-46.8790817260742
1.94002368192971E-06,-47.3320999145508
1.94502374296561E-06,-47.8177909851074
1.95002380400151E-06,-48.3317031860352
1.95502386503741E-06,-48.8693885803223
1.96002392607332E-06,-49.4264106750488
1.96502398710922E-06,-49.9983139038086
1.97002404814512E-06,-50.5806541442871
1.97502410918102E-06,-51.1689910888672
1.98002417021692E-06,-51.7588691711426
1.98502423125282E-06,-52.3458518981934
1.99002429228872E-06,-52.9254837036133
1.99502435332463E-06,-53.5075912475586
2.00002441436053E-06,-54.1313667297363
2.00502447539643E-06,-54.7902069091797
2.01002453643233E-06,-55.4738159179688
2.01502459746823E-06,-56.1719131469727
2.02002465850413E-06,-56.8742141723633
2.02502471954003E-06,-57.5704231262207
2.03002478057593E-06,-58.2502632141113
2.03502484161184E-06,-58.9034423828125
2.04002490264774E-06,-59.5196800231934
2.04502496368364E-06,-60.088680267334
2.05002502471954E-06,-60.6001625061035
2.05502508575544E-06,-61.0438385009766
2.06002514679134E-06,-61.4093704223633
2.06502520782724E-06,-61.692066192627
2.07002526886315E-06,-61.9011726379395
2.07502532989905E-06,-62.0477333068848
2.08002539093495E-06,-62.1427917480469
2.08502545197085E-06,-62.1973876953125
2.09002551300675E-06,-62.2225723266602
2.09502557404265E-06,-62.2293853759766
2.10002563507855E-06,-62.2288703918457
2.10502569611445E-06,-62.2320709228516
2.11002575715036E-06,-62.2500305175781
2.11502581818626E-06,-62.2937927246094
2.12002587922216E-06,-62.3744049072266
2.12502594025806E-06,-62.5029067993164
2.13002600129396E-06,-62.6714134216309
2.13502606232986E-06,-62.8622589111328
2.14002612336576E-06,-63.0718193054199
2.14502618440166E-06,-63.2964706420898
2.15002624543757E-06,-63.5325813293457
2.15502630647347E-06,-63.7765312194824
2.16002636750937E-06,-64.0246887207031
2.16502642854527E-06,-64.2734375
2.17002648958117E-06,-64.5191421508789
2.17502655061707E-06,-64.758186340332
2.18002661165297E-06,-64.986930847168
2.18502667268888E-06,-65.2017669677734
2.19002673372478E-06,-65.399055480957
2.19502679476068E-06,-65.5844955444336
2.20002685579658E-06,-65.7836990356445
2.20502691683248E-06,-65.9931182861328
2.21002697786838E-06,-66.2068099975586
2.21502703890428E-06,-66.4188537597656
2.22002709994018E-06,-66.6233215332031
2.22502716097609E-06,-66.8142700195313
2.23002722201199E-06,-66.9857864379883
2.23502728304789E-06,-67.1319274902344
2.24002734408379E-06,-67.2467727661133
2.24502740511969E-06,-67.3243789672852
2.25002746615559E-06,-67.3588333129883
2.25502752719149E-06,-67.3442001342773
2.2600275882274E-06,-67.2721710205078
2.2650276492633E-06,-67.1124725341797
2.2700277102992E-06,-66.8700637817383
2.2750277713351E-06,-66.5610427856445
2.280027832371E-06,-66.2015228271484
2.2850278934069E-06,-65.8075942993164
2.2900279544428E-06,-65.3953628540039
2.2950280154787E-06,-64.9809188842773
2.30002807651461E-06,-64.5803756713867
2.30502813755051E-06,-64.2098236083984
2.31002819858641E-06,-63.8853645324707
2.31502825962231E-06,-63.6231002807617
2.32002832065821E-06,-63.4391288757324
2.32502838169411E-06,-63.349552154541
2.33002844273001E-06,-63.3501434326172
2.33502850376592E-06,-63.4200668334961
2.34002856480182E-06,-63.5504989624023
2.34502862583772E-06,-63.7326126098633
2.35002868687362E-06,-63.9575843811035
2.35502874790952E-06,-64.2165908813477
2.36002880894542E-06,-64.5008163452148
2.36502886998132E-06,-64.8014297485352
2.37002893101722E-06,-65.1096038818359
2.37502899205313E-06,-65.4165267944336
2.38002905308903E-06,-65.7133636474609
2.38502911412493E-06,-65.9913024902344
2.39002917516083E-06,-66.2415084838867
2.39502923619673E-06,-66.4732131958008
2.40002929723263E-06,-66.7359237670898
2.40502935826853E-06,-67.0246887207031
2.41002941930443E-06,-67.3300247192383
2.41502948034034E-06,-67.642463684082
2.42002954137624E-06,-67.9525146484375
2.42502960241214E-06,-68.2507095336914
2.43002966344804E-06,-68.5275573730469
2.43502972448394E-06,-68.7735824584961
2.44002978551984E-06,-68.9793090820313
2.44502984655574E-06,-69.13525390625
2.45002990759165E-06,-69.2319412231445
2.45502996862755E-06,-69.259895324707
2.46003002966345E-06,-69.2078094482422
2.46503009069935E-06,-69.0506057739258
2.47003015173525E-06,-68.7965316772461
