Trace
Swept SA
A.19.55,N9020B
508 AB2 B25 B40 B85 DP2 DP4 EP2 FS1 FS2 MPB RTL ,01
Segment,0
Number of Points,81920
Sweep Time,0.0004096
Start Frequency,2400000000
Stop Frequency,2400000000
Average Count,0
Average Type,LogPower(Video)
RBW,3000000
RBW Filter,Gaussian
RBW Filter BW,3dB
VBW,3000000
Sweep Type,Swept
X Axis Scale,Lin
PreAmp State,Off
PreAmp Band,Low
Trigger Source,Ext1
Trigger Level,1.2
Trigger Slope,Positive
Trigger Delay,1E-06
Phase Noise Optimization,Fast
Swept If Gain,Low
FFT If Gain,Autorange
RF Coupling,AC
FFT Width,411900
Ext Ref,10000000
Input,RF
RF Calibrator,Off
Attenuation,6
Ref Level Offset,0
External Gain,0
Trace Type,Clearwrite
Detector,Normal
Trace Math,Off
Trace Math Oper1,Trace5
Trace Math Oper2,Trace6
Trace Math Offset,0
Normalize,Off
Trace Name,Trace1
X Axis Units,s
Y Axis Units,dBm
DATA
0,-51.3311157226563
5.00006103590132E-09,-51.4675483703613
1.00001220718026E-08,-51.5102462768555
1.50001831077039E-08,-51.4746932983398
2.00002441436053E-08,-51.3763847351074
2.50003051795066E-08,-51.2308120727539
3.00003662154079E-08,-51.0534706115723
3.50004272513092E-08,-50.8598556518555
4.00004882872105E-08,-50.6654510498047
4.50005493231118E-08,-50.4857559204102
5.00006103590132E-08,-50.3362617492676
5.50006713949145E-08,-50.2324638366699
6.00007324308158E-08,-50.1857566833496
6.50007934667171E-08,-50.1540946960449
7.00008545026184E-08,-50.1229095458984
7.50009155385197E-08,-50.0929069519043
8.00009765744211E-08,-50.0647811889648
8.50010376103224E-08,-50.0392379760742
9.00010986462237E-08,-50.016975402832
9.5001159682125E-08,-49.9986953735352
1.00001220718026E-07,-49.9850921630859
1.05001281753928E-07,-49.9768753051758
1.10001342789829E-07,-49.974739074707
1.1500140382573E-07,-49.9793853759766
1.20001464861632E-07,-49.9915161132813
1.25001525897533E-07,-50.0118293762207
1.30001586933434E-07,-50.0335388183594
1.35001647969336E-07,-50.0512847900391
1.40001709005237E-07,-50.0678863525391
1.45001770041138E-07,-50.0861740112305
1.50001831077039E-07,-50.1089782714844
1.55001892112941E-07,-50.1391220092773
1.60001953148842E-07,-50.1794395446777
1.65002014184743E-07,-50.2327499389648
1.70002075220645E-07,-50.301887512207
1.75002136256546E-07,-50.3896789550781
1.80002197292447E-07,-50.4989471435547
1.85002258328349E-07,-50.6325263977051
1.9000231936425E-07,-50.7932395935059
1.95002380400151E-07,-50.9883575439453
2.00002441436053E-07,-51.2301940917969
2.05002502471954E-07,-51.5121917724609
2.10002563507855E-07,-51.8264999389648
2.15002624543757E-07,-52.1652603149414
2.20002685579658E-07,-52.5206108093262
2.25002746615559E-07,-52.8846969604492
2.30002807651461E-07,-53.2496566772461
2.35002868687362E-07,-53.6076354980469
2.40002929723263E-07,-53.9507789611816
2.45002990759165E-07,-54.2712211608887
2.50003051795066E-07,-54.561107635498
2.55003112830967E-07,-54.8125839233398
2.60003173866868E-07,-55.0194129943848
2.6500323490277E-07,-55.197681427002
2.70003295938671E-07,-55.3546981811523
2.75003356974572E-07,-55.4919700622559
2.80003418010474E-07,-55.6109886169434
2.85003479046375E-07,-55.7132530212402
2.90003540082276E-07,-55.8002662658691
2.95003601118178E-07,-55.8735237121582
3.00003662154079E-07,-55.9345245361328
3.0500372318998E-07,-55.9847679138184
3.10003784225882E-07,-56.0257530212402
3.15003845261783E-07,-56.0589752197266
3.20003906297684E-07,-56.0859336853027
3.25003967333586E-07,-56.1081275939941
3.30004028369487E-07,-56.1123886108398
3.35004089405388E-07,-56.0881462097168
3.4000415044129E-07,-56.0407905578613
3.45004211477191E-07,-55.9757194519043
3.50004272513092E-07,-55.898323059082
3.55004333548993E-07,-55.8139991760254
3.60004394584895E-07,-55.728141784668
3.65004455620796E-07,-55.6461410522461
3.70004516656697E-07,-55.5733909606934
3.75004577692599E-07,-55.5152931213379
3.800046387285E-07,-55.4772300720215
3.85004699764401E-07,-55.4646072387695
3.90004760800303E-07,-55.4828071594238
3.95004821836204E-07,-55.5362167358398
4.00004882872105E-07,-55.6221542358398
4.05004943908007E-07,-55.7356834411621
4.10005004943908E-07,-55.8719291687012
4.15005065979809E-07,-56.0260162353516
4.20005127015711E-07,-56.1930656433105
4.25005188051612E-07,-56.3682022094727
4.30005249087513E-07,-56.5465507507324
4.35005310123415E-07,-56.7232360839844
4.40005371159316E-07,-56.893383026123
4.45005432195217E-07,-57.052116394043
4.50005493231119E-07,-57.1945533752441
4.5500555426702E-07,-57.3158264160156
4.60005615302921E-07,-57.411205291748
4.65005676338822E-07,-57.4805450439453
4.70005737374724E-07,-57.5282516479492
4.75005798410625E-07,-57.5588302612305
4.80005859446526E-07,-57.5767784118652
4.85005920482428E-07,-57.5866088867188
4.90005981518329E-07,-57.5928153991699
4.9500604255423E-07,-57.5999031066895
5.00006103590132E-07,-57.612377166748
5.05006164626033E-07,-57.6347427368164
5.10006225661934E-07,-57.6714973449707
5.15006286697836E-07,-57.7271423339844
5.20006347733737E-07,-57.8061866760254
5.25006408769638E-07,-57.9131317138672
5.3000646980554E-07,-58.0498466491699
5.35006530841441E-07,-58.2125663757324
5.40006591877342E-07,-58.3973426818848
5.45006652913243E-07,-58.6002159118652
5.50006713949145E-07,-58.8172378540039
5.55006774985046E-07,-59.0444488525391
5.60006836020948E-07,-59.277904510498
5.65006897056849E-07,-59.5136451721191
5.7000695809275E-07,-59.7477226257324
5.75007019128651E-07,-59.9761772155762
5.80007080164553E-07,-60.1950607299805
5.85007141200454E-07,-60.4004211425781
5.90007202236355E-07,-60.5882987976074
5.95007263272257E-07,-60.7593002319336
6.00007324308158E-07,-60.9258728027344
6.05007385344059E-07,-61.0886039733887
6.10007446379961E-07,-61.247013092041
6.15007507415862E-07,-61.4006195068359
6.20007568451763E-07,-61.5489387512207
6.25007629487665E-07,-61.6914863586426
6.30007690523566E-07,-61.8277816772461
6.35007751559467E-07,-61.9573402404785
6.40007812595369E-07,-62.0796813964844
6.4500787363127E-07,-62.1943244934082
6.50007934667171E-07,-62.30078125
6.55007995703072E-07,-62.3985710144043
6.60008056738974E-07,-62.4880523681641
6.65008117774875E-07,-62.5788879394531
6.70008178810776E-07,-62.6716461181641
6.75008239846678E-07,-62.7633514404297
6.80008300882579E-07,-62.8510322570801
6.8500836191848E-07,-62.9317169189453
6.90008422954382E-07,-63.0024375915527
6.95008483990283E-07,-63.0602188110352
7.00008545026184E-07,-63.1020889282227
7.05008606062086E-07,-63.1250762939453
7.10008667097987E-07,-63.1262054443359
7.15008728133888E-07,-63.1025123596191
7.2000878916979E-07,-63.0510215759277
7.25008850205691E-07,-62.9687576293945
7.30008911241592E-07,-62.843189239502
7.35008972277494E-07,-62.6691551208496
7.40009033313395E-07,-62.4547691345215
7.45009094349296E-07,-62.208137512207
7.50009155385198E-07,-61.9373664855957
7.55009216421099E-07,-61.6505699157715
7.60009277457E-07,-61.3558502197266
7.65009338492901E-07,-61.0613174438477
7.70009399528803E-07,-60.7750816345215
7.75009460564704E-07,-60.5052452087402
7.80009521600605E-07,-60.2599258422852
7.85009582636507E-07,-60.0472221374512
7.90009643672408E-07,-59.8752479553223
7.95009704708309E-07,-59.7466468811035
8.00009765744211E-07,-59.6465606689453
8.05009826780112E-07,-59.5706939697266
8.10009887816013E-07,-59.5159111022949
8.15009948851915E-07,-59.4790725708008
8.20010009887816E-07,-59.4570350646973
8.25010070923717E-07,-59.4466667175293
8.30010131959619E-07,-59.4448280334473
8.3501019299552E-07,-59.4483795166016
8.40010254031421E-07,-59.4541816711426
8.45010315067323E-07,-59.4590950012207
8.50010376103224E-07,-59.4599876403809
8.55010437139125E-07,-59.4537162780762
8.60010498175026E-07,-59.4364776611328
8.65010559210928E-07,-59.3992576599121
8.70010620246829E-07,-59.3447723388672
8.7501068128273E-07,-59.2790718078613
8.80010742318632E-07,-59.2082061767578
8.85010803354533E-07,-59.1382217407227
8.90010864390434E-07,-59.0751686096191
8.95010925426336E-07,-59.0250968933105
9.00010986462237E-07,-58.9940528869629
9.05011047498138E-07,-58.9880867004395
9.1001110853404E-07,-59.0132446289063
9.15011169569941E-07,-59.0755805969238
9.20011230605842E-07,-59.1811370849609
9.25011291641744E-07,-59.3359680175781
9.30011352677645E-07,-59.5661125183105
9.35011413713546E-07,-59.8824081420898
9.40011474749448E-07,-60.2681045532227
9.45011535785349E-07,-60.7064361572266
9.5001159682125E-07,-61.1806564331055
9.55011657857151E-07,-61.6740074157715
9.60011718893053E-07,-62.1697273254395
9.65011779928954E-07,-62.651065826416
9.70011840964855E-07,-63.1012687683105
9.75011902000757E-07,-63.5035743713379
9.80011963036658E-07,-63.8412322998047
9.85012024072559E-07,-64.0974807739258
9.90012085108461E-07,-64.2555770874023
9.95012146144362E-07,-64.3036422729492
1.00001220718026E-06,-64.2547607421875
1.00501226821616E-06,-64.1229019165039
1.01001232925207E-06,-63.9213638305664
1.01501239028797E-06,-63.6634483337402
1.02001245132387E-06,-63.3624572753906
1.02501251235977E-06,-63.0316886901855
1.03001257339567E-06,-62.6844444274902
1.03501263443157E-06,-62.3340301513672
1.04001269546747E-06,-61.9937438964844
1.04501275650338E-06,-61.676887512207
1.05001281753928E-06,-61.3967628479004
1.05501287857518E-06,-61.1666679382324
1.06001293961108E-06,-60.9973068237305
1.06501300064698E-06,-60.8633155822754
1.07001306168288E-06,-60.7523231506348
1.07501312271878E-06,-60.6611518859863
1.08001318375468E-06,-60.5866050720215
1.08501324479059E-06,-60.5254936218262
1.09001330582649E-06,-60.4746360778809
1.09501336686239E-06,-60.4308395385742
1.10001342789829E-06,-60.3909149169922
1.10501348893419E-06,-60.3516731262207
1.11001354997009E-06,-60.309928894043
1.11501361100599E-06,-60.2624931335449
1.1200136720419E-06,-60.2061729431152
1.1250137330778E-06,-60.1377830505371
1.1300137941137E-06,-60.0560836791992
1.1350138551496E-06,-59.9637908935547
1.1400139161855E-06,-59.8636665344238
1.1450139772214E-06,-59.758472442627
1.1500140382573E-06,-59.6509628295898
1.1550140992932E-06,-59.5439033508301
1.16001416032911E-06,-59.4400444030762
1.16501422136501E-06,-59.3421478271484
1.17001428240091E-06,-59.2529754638672
1.17501434343681E-06,-59.1752815246582
1.18001440447271E-06,-59.1118278503418
1.18501446550861E-06,-59.065372467041
1.19001452654451E-06,-59.0386772155762
1.19501458758041E-06,-59.0347480773926
1.20001464861632E-06,-59.0543518066406
1.20501470965222E-06,-59.0943450927734
1.21001477068812E-06,-59.1514129638672
1.21501483172402E-06,-59.2222328186035
1.22001489275992E-06,-59.3034896850586
1.22501495379582E-06,-59.3918685913086
1.23001501483172E-06,-59.4840469360352
1.23501507586763E-06,-59.5767097473145
1.24001513690353E-06,-59.6665382385254
1.24501519793943E-06,-59.7502136230469
1.25001525897533E-06,-59.8244171142578
1.25501532001123E-06,-59.8858375549316
1.26001538104713E-06,-59.9303855895996
1.26501544208303E-06,-59.9478225708008
1.27001550311893E-06,-59.9410095214844
1.27501556415484E-06,-59.9165954589844
1.28001562519074E-06,-59.8812255859375
1.28501568622664E-06,-59.8415451049805
1.29001574726254E-06,-59.80419921875
1.29501580829844E-06,-59.7758369445801
1.30001586933434E-06,-59.7631034851074
1.30501593037024E-06,-59.7726402282715
1.31001599140614E-06,-59.8110961914063
1.31501605244205E-06,-59.8851203918457
1.32001611347795E-06,-60.0013542175293
1.32501617451385E-06,-60.166446685791
1.33001623554975E-06,-60.4035568237305
1.33501629658565E-06,-60.7209091186523
1.34001635762155E-06,-61.1027450561523
1.34501641865745E-06,-61.5333099365234
1.35001647969336E-06,-61.9968414306641
1.35501654072926E-06,-62.4775848388672
1.36001660176516E-06,-62.9597816467285
1.36501666280106E-06,-63.427677154541
1.37001672383696E-06,-63.8655090332031
1.37501678487286E-06,-64.2575225830078
1.38001684590876E-06,-64.5879592895508
1.38501690694466E-06,-64.8410568237305
1.39001696798057E-06,-65.0010681152344
1.39501702901647E-06,-65.0567245483398
1.40001709005237E-06,-65.0200576782227
1.40501715108827E-06,-64.9042739868164
1.41001721212417E-06,-64.7219848632813
1.41501727316007E-06,-64.4858245849609
1.42001733419597E-06,-64.2083892822266
1.42501739523188E-06,-63.9023132324219
1.43001745626778E-06,-63.5802001953125
1.43501751730368E-06,-63.2546768188477
1.44001757833958E-06,-62.9383544921875
1.44501763937548E-06,-62.6438484191895
1.45001770041138E-06,-62.3837738037109
1.45501776144728E-06,-62.1707572937012
1.46001782248318E-06,-62.0154495239258
1.46501788351909E-06,-61.8998184204102
1.47001794455499E-06,-61.8122100830078
1.47501800559089E-06,-61.7474784851074
1.48001806662679E-06,-61.7004737854004
1.48501812766269E-06,-61.6660461425781
1.49001818869859E-06,-61.639045715332
1.49501824973449E-06,-61.6143264770508
1.5000183107704E-06,-61.5867347717285
1.5050183718063E-06,-61.5511207580566
1.5100184328422E-06,-61.5023422241211
1.5150184938781E-06,-61.4352416992188
1.520018554914E-06,-61.3446731567383
1.5250186159499E-06,-61.2254905700684
1.5300186769858E-06,-61.0869026184082
1.5350187380217E-06,-60.9408988952637
1.54001879905761E-06,-60.7864685058594
1.54501886009351E-06,-60.6226081848145
1.55001892112941E-06,-60.4483108520508
1.55501898216531E-06,-60.2625770568848
1.56001904320121E-06,-60.0643997192383
1.56501910423711E-06,-59.8527755737305
1.57001916527301E-06,-59.6266975402832
1.57501922630891E-06,-59.3851623535156
1.58001928734482E-06,-59.1271667480469
1.58501934838072E-06,-58.8517036437988
1.59001940941662E-06,-58.5577697753906
1.59501947045252E-06,-58.2374687194824
1.60001953148842E-06,-57.8717803955078
1.60501959252432E-06,-57.4672584533691
1.61001965356022E-06,-57.0323600769043
1.61501971459613E-06,-56.5755424499512
1.62001977563203E-06,-56.1052551269531
1.62501983666793E-06,-55.6299591064453
1.63001989770383E-06,-55.1581039428711
1.63501995873973E-06,-54.6981506347656
1.64002001977563E-06,-54.2585487365723
1.64502008081153E-06,-53.8477554321289
1.65002014184743E-06,-53.4742279052734
1.65502020288334E-06,-53.1464195251465
1.66002026391924E-06,-52.8741035461426
1.66502032495514E-06,-52.6761054992676
1.67002038599104E-06,-52.5450286865234
1.67502044702694E-06,-52.4665031433105
1.68002050806284E-06,-52.4261741638184
1.68502056909874E-06,-52.4096717834473
1.69002063013465E-06,-52.4026374816895
1.69502069117055E-06,-52.3907012939453
1.70002075220645E-06,-52.3595085144043
1.70502081324235E-06,-52.2946853637695
1.71002087427825E-06,-52.1818771362305
1.71502093531415E-06,-52.0067138671875
1.72002099635005E-06,-51.7548370361328
1.72502105738595E-06,-51.4118843078613
1.73002111842186E-06,-50.9608955383301
1.73502117945776E-06,-50.4064636230469
1.74002124049366E-06,-49.766544342041
1.74502130152956E-06,-49.0590858459473
1.75002136256546E-06,-48.3020439147949
1.75502142360136E-06,-47.513370513916
1.76002148463726E-06,-46.7110214233398
1.76502154567316E-06,-45.9129447937012
1.77002160670907E-06,-45.1371002197266
1.77502166774497E-06,-44.4014320373535
1.78002172878087E-06,-43.7238998413086
1.78502178981677E-06,-43.1224517822266
1.79002185085267E-06,-42.6150436401367
1.79502191188857E-06,-42.2072372436523
1.80002197292447E-06,-41.8653144836426
1.80502203396038E-06,-41.5800018310547
1.81002209499628E-06,-41.344669342041
1.81502215603218E-06,-41.1526794433594
1.82002221706808E-06,-40.9974021911621
1.82502227810398E-06,-40.8722038269043
1.83002233913988E-06,-40.770450592041
1.83502240017578E-06,-40.6855125427246
1.84002246121168E-06,-40.6107559204102
1.84502252224759E-06,-40.5395431518555
1.85002258328349E-06,-40.4652481079102
1.85502264431939E-06,-40.3812294006348
1.86002270535529E-06,-40.2779388427734
1.86502276639119E-06,-40.1183586120605
1.87002282742709E-06,-39.9080009460449
1.87502288846299E-06,-39.6659851074219
1.8800229494989E-06,-39.4114303588867
1.8850230105348E-06,-39.163459777832
1.8900230715707E-06,-38.9411888122559
1.8950231326066E-06,-38.7637405395508
1.9000231936425E-06,-38.6502304077148
1.9050232546784E-06,-38.6197814941406
1.9100233157143E-06,-38.6915092468262
1.9150233767502E-06,-38.8845367431641
1.92002343778611E-06,-39.2179794311523
1.92502349882201E-06,-39.7109565734863
1.93002355985791E-06,-40.4218330383301
1.93502362089381E-06,-41.3686752319336
1.94002368192971E-06,-42.5101776123047
1.94502374296561E-06,-43.8050270080566
1.95002380400151E-06,-45.2119178771973
1.95502386503741E-06,-46.6895408630371
1.96002392607332E-06,-48.1965866088867
1.96502398710922E-06,-49.6917419433594
1.97002404814512E-06,-51.1337051391602
1.97502410918102E-06,-52.4811630249023
1.98002417021692E-06,-53.6928062438965
1.98502423125282E-06,-54.7273292541504
1.99002429228872E-06,-55.5434188842773
1.99502435332463E-06,-56.1236763000488
2.00002441436053E-06,-56.5329780578613
2.00502447539643E-06,-56.7963256835938
2.01002453643233E-06,-56.9339027404785
2.01502459746823E-06,-56.9658699035645
2.02002465850413E-06,-56.9124069213867
2.02502471954003E-06,-56.7936859130859
2.03002478057593E-06,-56.6298751831055
2.03502484161184E-06,-56.4411468505859
2.04002490264774E-06,-56.2476806640625
2.04502496368364E-06,-56.0696411132813
2.05002502471954E-06,-55.9272003173828
2.05502508575544E-06,-55.8405380249023
2.06002514679134E-06,-55.8251266479492
2.06502520782724E-06,-55.8336791992188
2.07002526886315E-06,-55.8473320007324
2.07502532989905E-06,-55.8643569946289
2.08002539093495E-06,-55.8830375671387
2.08502545197085E-06,-55.9016494750977
2.09002551300675E-06,-55.9184722900391
2.09502557404265E-06,-55.9317779541016
2.10002563507855E-06,-55.9398460388184
2.10502569611445E-06,-55.9409561157227
2.11002575715036E-06,-55.9333839416504
2.11502581818626E-06,-55.9154052734375
2.12002587922216E-06,-55.8852996826172
2.12502594025806E-06,-55.8413467407227
2.13002600129396E-06,-55.7754402160645
2.13502606232986E-06,-55.6840324401855
2.14002612336576E-06,-55.5722351074219
2.14502618440166E-06,-55.4451446533203
2.15002624543757E-06,-55.3078689575195
2.15502630647347E-06,-55.1655120849609
2.16002636750937E-06,-55.0231781005859
2.16502642854527E-06,-54.8859748840332
2.17002648958117E-06,-54.7590026855469
2.17502655061707E-06,-54.6473731994629
2.18002661165297E-06,-54.5561828613281
2.18502667268888E-06,-54.4905395507813
2.19002673372478E-06,-54.4555511474609
2.19502679476068E-06,-54.4551963806152
2.20002685579658E-06,-54.4865188598633
2.20502691683248E-06,-54.5449714660645
2.21002697786838E-06,-54.6260986328125
2.21502703890428E-06,-54.725456237793
2.22002709994018E-06,-54.8386001586914
2.22502716097609E-06,-54.9610748291016
2.23002722201199E-06,-55.088436126709
2.23502728304789E-06,-55.216236114502
2.24002734408379E-06,-55.3400268554688
2.24502740511969E-06,-55.4553604125977
2.25002746615559E-06,-55.557788848877
2.25502752719149E-06,-55.6428642272949
2.2600275882274E-06,-55.706974029541
2.2650276492633E-06,-55.758228302002
2.2700277102992E-06,-55.8007507324219
2.2750277713351E-06,-55.8357467651367
2.280027832371E-06,-55.8644104003906
2.2850278934069E-06,-55.8879470825195
2.2900279544428E-06,-55.9075469970703
2.2950280154787E-06,-55.9244155883789
2.30002807651461E-06,-55.9397506713867
2.30502813755051E-06,-55.9547500610352
2.31002819858641E-06,-55.9706115722656
2.31502825962231E-06,-55.9885368347168
2.32002832065821E-06,-56.0097198486328
2.32502838169411E-06,-56.0353698730469
2.33002844273001E-06,-56.0711669921875
2.33502850376592E-06,-56.1196174621582
2.34002856480182E-06,-56.1771507263184
2.34502862583772E-06,-56.2401809692383
2.35002868687362E-06,-56.3051338195801
2.35502874790952E-06,-56.3684272766113
2.36002880894542E-06,-56.4264869689941
2.36502886998132E-06,-56.4757308959961
2.37002893101722E-06,-56.5125846862793
2.37502899205313E-06,-56.5334663391113
2.38002905308903E-06,-56.534797668457
2.38502911412493E-06,-56.5130043029785
2.39002917516083E-06,-56.4645080566406
2.39502923619673E-06,-56.3841323852539
2.40002929723263E-06,-56.2673988342285
2.40502935826853E-06,-56.1193923950195
2.41002941930443E-06,-55.9457626342773
2.41502948034034E-06,-55.7521629333496
2.42002954137624E-06,-55.5442504882813
2.42502960241214E-06,-55.3276710510254
2.43002966344804E-06,-55.1080780029297
2.43502972448394E-06,-54.8911285400391
2.44002978551984E-06,-54.6824722290039
2.44502984655574E-06,-54.4877624511719
2.45002990759165E-06,-54.3126487731934
2.45502996862755E-06,-54.1627883911133
2.46003002966345E-06,-54.0408744812012
2.46503009069935E-06,-53.9143180847168
