Trace
Swept SA
A.19.55,N9020B
508 AB2 B25 B40 B85 DP2 DP4 EP2 FS1 FS2 MPB RTL ,01
Segment,0
Number of Points,81920
Sweep Time,0.000452266667
Start Frequency,2400000000
Stop Frequency,2400000000
Average Count,0
Average Type,LogPower(Video)
RBW,3000000
RBW Filter,Gaussian
RBW Filter BW,3dB
VBW,3000000
Sweep Type,Swept
X Axis Scale,Lin
PreAmp State,Off
PreAmp Band,Low
Trigger Source,Ext1
Trigger Level,1.2
Trigger Slope,Positive
Trigger Delay,1E-06
Phase Noise Optimization,Fast
Swept If Gain,Low
FFT If Gain,Autorange
RF Coupling,AC
FFT Width,411900
Ext Ref,10000000
Input,RF
RF Calibrator,Off
Attenuation,6
Ref Level Offset,0
External Gain,0
Trace Type,Clearwrite
Detector,Normal
Trace Math,Off
Trace Math Oper1,Trace5
Trace Math Oper2,Trace6
Trace Math Offset,0
Normalize,Off
Trace Name,Trace1
X Axis Units,s
Y Axis Units,dBm
DATA
0,-64.2567138671875
5.5209007312101E-09,-64.0559387207031
1.10418014624202E-08,-63.5794258117676
1.65627021936303E-08,-62.8892707824707
2.20836029248404E-08,-62.0475769042969
2.76045036560505E-08,-61.1164398193359
3.31254043872606E-08,-60.1579627990723
3.86463051184707E-08,-59.234245300293
4.41672058496808E-08,-58.4073791503906
4.96881065808909E-08,-57.7394752502441
5.5209007312101E-08,-57.2926254272461
6.07299080433111E-08,-57.0450172424316
6.62508087745212E-08,-56.8718414306641
7.17717095057313E-08,-56.7614326477051
7.72926102369414E-08,-56.7045097351074
8.28135109681515E-08,-56.6917915344238
8.83344116993616E-08,-56.7139930725098
9.38553124305717E-08,-56.7618370056152
9.93762131617818E-08,-56.8260345458984
1.04897113892992E-07,-56.8973083496094
1.10418014624202E-07,-56.9663734436035
1.15938915355412E-07,-57.0239486694336
1.21459816086622E-07,-57.0607528686523
1.26980716817832E-07,-57.0927810668945
1.32501617549042E-07,-57.1664390563965
1.38022518280252E-07,-57.2720413208008
1.43543419011463E-07,-57.3977088928223
1.49064319742673E-07,-57.5315704345703
1.54585220473883E-07,-57.661750793457
1.60106121205093E-07,-57.7763786315918
1.65627021936303E-07,-57.8635749816895
1.71147922667513E-07,-57.9114723205566
1.76668823398723E-07,-57.9081878662109
1.82189724129933E-07,-57.841854095459
1.87710624861143E-07,-57.7005920410156
1.93231525592353E-07,-57.4662094116211
1.98752426323564E-07,-57.1237907409668
2.04273327054774E-07,-56.6918334960938
2.09794227785984E-07,-56.1905174255371
2.15315128517194E-07,-55.6400184631348
2.20836029248404E-07,-55.0605010986328
2.26356929979614E-07,-54.4721488952637
2.31877830710824E-07,-53.8951263427734
2.37398731442034E-07,-53.3496131896973
2.42919632173244E-07,-52.8557815551758
2.48440532904454E-07,-52.4337997436523
2.53961433635664E-07,-52.1038513183594
2.59482334366875E-07,-51.8561019897461
2.65003235098085E-07,-51.5960998535156
2.70524135829295E-07,-51.3310470581055
2.76045036560505E-07,-51.0791168212891
2.81565937291715E-07,-50.8584823608398
2.87086838022925E-07,-50.6873245239258
2.92607738754135E-07,-50.5838050842285
2.98128639485345E-07,-50.5661087036133
3.03649540216555E-07,-50.6524047851563
3.09170440947765E-07,-50.8608627319336
3.14691341678976E-07,-51.2096633911133
3.20212242410186E-07,-51.7169799804688
3.25733143141396E-07,-52.4309120178223
3.31254043872606E-07,-53.4832000732422
3.36774944603816E-07,-54.8254890441895
3.42295845335026E-07,-56.385856628418
3.47816746066236E-07,-58.0923652648926
3.53337646797446E-07,-59.8730964660645
3.58858547528656E-07,-61.6561126708984
3.64379448259866E-07,-63.3694877624512
3.69900348991077E-07,-64.941291809082
3.75421249722287E-07,-66.2995986938477
3.80942150453497E-07,-67.3724822998047
3.86463051184707E-07,-68.088005065918
3.91983951915917E-07,-68.3844985961914
3.97504852647127E-07,-68.3045425415039
4.03025753378337E-07,-67.9090805053711
4.08546654109547E-07,-67.2520599365234
4.14067554840757E-07,-66.3874206542969
4.19588455571967E-07,-65.3691177368164
4.25109356303178E-07,-64.2510757446289
4.30630257034388E-07,-63.0872573852539
4.36151157765598E-07,-61.9315872192383
4.41672058496808E-07,-60.838020324707
4.47192959228018E-07,-59.8604927062988
4.52713859959228E-07,-59.0529518127441
4.58234760690438E-07,-58.453426361084
4.63755661421648E-07,-57.9466972351074
4.69276562152858E-07,-57.4938888549805
4.74797462884068E-07,-57.089469909668
4.80318363615278E-07,-56.7279052734375
4.85839264346489E-07,-56.4036521911621
4.91360165077699E-07,-56.1111755371094
4.96881065808909E-07,-55.8449363708496
5.02401966540119E-07,-55.5994033813477
5.07922867271329E-07,-55.3690338134766
5.13443768002539E-07,-55.1482925415039
5.18964668733749E-07,-54.9316444396973
5.24485569464959E-07,-54.7161750793457
5.30006470196169E-07,-54.5324821472168
5.3552737092738E-07,-54.3852806091309
5.4104827165859E-07,-54.2673950195313
5.465691723898E-07,-54.1716423034668
5.5209007312101E-07,-54.0908508300781
5.5761097385222E-07,-54.0178413391113
5.6313187458343E-07,-53.9454383850098
5.6865277531464E-07,-53.8664627075195
5.7417367604585E-07,-53.7737350463867
5.7969457677706E-07,-53.6600799560547
5.8521547750827E-07,-53.5183181762695
5.90736378239481E-07,-53.3410491943359
5.96257278970691E-07,-53.1201820373535
6.01778179701901E-07,-52.8613815307617
6.07299080433111E-07,-52.574047088623
6.12819981164321E-07,-52.2675743103027
6.18340881895531E-07,-51.951358795166
6.23861782626741E-07,-51.6348037719727
6.29382683357951E-07,-51.3273010253906
6.34903584089161E-07,-51.0382499694824
6.40424484820371E-07,-50.7770500183105
6.45945385551581E-07,-50.5530967712402
6.51466286282792E-07,-50.3757858276367
6.56987187014002E-07,-50.2541198730469
6.62508087745212E-07,-50.1770935058594
6.68028988476422E-07,-50.1338806152344
6.73549889207632E-07,-50.1217498779297
6.79070789938842E-07,-50.1379737854004
6.84591690670052E-07,-50.179817199707
6.90112591401262E-07,-50.244556427002
6.95633492132472E-07,-50.3294525146484
7.01154392863682E-07,-50.4317779541016
7.06675293594893E-07,-50.5488014221191
7.12196194326103E-07,-50.6777954101563
7.17717095057313E-07,-50.8160209655762
7.23237995788523E-07,-50.9609985351563
7.28758896519733E-07,-51.1404724121094
7.34279797250943E-07,-51.3670959472656
7.39800697982153E-07,-51.6299095153809
7.45321598713363E-07,-51.9179573059082
7.50842499444573E-07,-52.2202682495117
7.56363400175783E-07,-52.5258827209473
7.61884300906994E-07,-52.8238372802734
7.67405201638204E-07,-53.1031723022461
7.72926102369414E-07,-53.3529205322266
7.78447003100624E-07,-53.5621223449707
7.83967903831834E-07,-53.7198181152344
7.89488804563044E-07,-53.8150367736816
7.95009705294254E-07,-53.8445892333984
8.00530606025464E-07,-53.8182144165039
8.06051506756674E-07,-53.7448348999023
8.11572407487884E-07,-53.6333770751953
8.17093308219094E-07,-53.4927597045898
8.22614208950305E-07,-53.3319091796875
8.28135109681515E-07,-53.1597442626953
8.33656010412725E-07,-52.9851913452148
8.39176911143935E-07,-52.8171691894531
8.44697811875145E-07,-52.664608001709
8.50218712606355E-07,-52.5364227294922
8.55739613337565E-07,-52.4415397644043
8.61260514068775E-07,-52.3413848876953
8.66781414799985E-07,-52.191722869873
8.72302315531195E-07,-52.0107154846191
8.77823216262406E-07,-51.8166885375977
8.83344116993616E-07,-51.6279792785645
8.88865017724826E-07,-51.4629173278809
8.94385918456036E-07,-51.3398361206055
8.99906819187246E-07,-51.2770614624023
9.05427719918456E-07,-51.2929306030273
9.10948620649666E-07,-51.4057693481445
9.16469521380876E-07,-51.633918762207
9.21990422112086E-07,-51.9957008361816
9.27511322843296E-07,-52.558162689209
9.33032223574507E-07,-53.3760261535645
9.38553124305717E-07,-54.3948440551758
9.44074025036927E-07,-55.5588226318359
9.49594925768137E-07,-56.8121757507324
9.55115826499347E-07,-58.0991134643555
9.60636727230557E-07,-59.3638458251953
9.66157627961767E-07,-60.5505828857422
9.71678528692977E-07,-61.6035346984863
9.77199429424187E-07,-62.4669075012207
9.82720330155397E-07,-63.0849151611328
9.88241230886608E-07,-63.4017715454102
9.93762131617818E-07,-63.3812789916992
9.99283032349028E-07,-63.0641860961914
1.00480393308024E-06,-62.4981307983398
1.01032483381145E-06,-61.7301368713379
1.01584573454266E-06,-60.8072395324707
1.02136663527387E-06,-59.7764663696289
1.02688753600508E-06,-58.6848487854004
1.03240843673629E-06,-57.5794143676758
1.0379293374675E-06,-56.507194519043
1.04345023819871E-06,-55.5152168273926
1.04897113892992E-06,-54.6505126953125
1.05449203966113E-06,-53.9601135253906
1.06001294039234E-06,-53.4444618225098
1.06553384112355E-06,-52.9975776672363
1.07105474185476E-06,-52.6077995300293
1.07657564258597E-06,-52.2700309753418
1.08209654331718E-06,-51.9791717529297
1.08761744404839E-06,-51.7301292419434
1.0931383447796E-06,-51.5178070068359
1.09865924551081E-06,-51.337100982666
1.10418014624202E-06,-51.1829147338867
1.10970104697323E-06,-51.0501556396484
1.11522194770444E-06,-50.933723449707
1.12074284843565E-06,-50.8285179138184
1.12626374916686E-06,-50.7403869628906
1.13178464989807E-06,-50.7016105651855
1.13730555062928E-06,-50.7073936462402
1.14282645136049E-06,-50.7494583129883
1.1483473520917E-06,-50.819522857666
1.15386825282291E-06,-50.9093055725098
1.15938915355412E-06,-51.0105285644531
1.16491005428533E-06,-51.1149063110352
1.17043095501654E-06,-51.2141647338867
1.17595185574775E-06,-51.3000183105469
1.18147275647896E-06,-51.3641891479492
1.18699365721017E-06,-51.3983917236328
1.19251455794138E-06,-51.3970336914063
1.19803545867259E-06,-51.3696136474609
1.2035563594038E-06,-51.3220367431641
1.20907726013501E-06,-51.2590408325195
1.21459816086622E-06,-51.1853637695313
1.22011906159743E-06,-51.1057395935059
1.22563996232864E-06,-51.0249099731445
1.23116086305985E-06,-50.9476051330566
1.23668176379106E-06,-50.8785667419434
1.24220266452227E-06,-50.8225288391113
1.24772356525348E-06,-50.7842330932617
1.25324446598469E-06,-50.7684097290039
1.2587653667159E-06,-50.7711410522461
1.26428626744711E-06,-50.7464408874512
1.26980716817832E-06,-50.6980934143066
1.27532806890953E-06,-50.639591217041
1.28084896964074E-06,-50.5844306945801
1.28636987037195E-06,-50.5461120605469
1.29189077110316E-06,-50.5381317138672
1.29741167183437E-06,-50.5739860534668
1.30293257256558E-06,-50.6671714782715
1.30845347329679E-06,-50.8311882019043
1.313974374028E-06,-51.0795288085938
1.31949527475921E-06,-51.4256896972656
1.32501617549042E-06,-51.8946342468262
1.33053707622163E-06,-52.577938079834
1.33605797695284E-06,-53.4532089233398
1.34157887768405E-06,-54.4717597961426
1.34709977841526E-06,-55.584903717041
1.35262067914647E-06,-56.7439460754395
1.35814157987768E-06,-57.900203704834
1.36366248060889E-06,-59.0049781799316
1.3691833813401E-06,-60.0095825195313
1.37470428207131E-06,-60.8653259277344
1.38022518280252E-06,-61.5235214233398
1.38574608353373E-06,-61.935474395752
1.39126698426494E-06,-62.0545616149902
1.39678788499615E-06,-61.8852653503418
1.40230878572736E-06,-61.4711227416992
1.40782968645858E-06,-60.8544960021973
1.41335058718979E-06,-60.0777320861816
1.418871487921E-06,-59.1831893920898
1.42439238865221E-06,-58.2132186889648
1.42991328938342E-06,-57.2101783752441
1.43543419011463E-06,-56.216423034668
1.44095509084584E-06,-55.274299621582
1.44647599157705E-06,-54.4261703491211
1.45199689230826E-06,-53.7143898010254
1.45751779303947E-06,-53.1765937805176
1.46303869377068E-06,-52.7474746704102
1.46855959450189E-06,-52.3852386474609
1.4740804952331E-06,-52.0799293518066
1.47960139596431E-06,-51.8215827941895
1.48512229669552E-06,-51.6002388000488
1.49064319742673E-06,-51.4059371948242
1.49616409815794E-06,-51.2287178039551
1.50168499888915E-06,-51.0586204528809
1.50720589962036E-06,-50.8856773376465
1.51272680035157E-06,-50.6999359130859
1.51824770108278E-06,-50.4914321899414
1.52376860181399E-06,-50.2513542175293
1.5292895025452E-06,-50.012882232666
1.53481040327641E-06,-49.7908248901367
1.54033130400762E-06,-49.5791397094727
1.54585220473883E-06,-49.3717918395996
1.55137310547004E-06,-49.1627502441406
1.55689400620125E-06,-48.945972442627
1.56241490693246E-06,-48.7154235839844
1.56793580766367E-06,-48.4650650024414
1.57345670839488E-06,-48.1888656616211
1.57897760912609E-06,-47.8807830810547
1.5844985098573E-06,-47.534782409668
1.59001941058851E-06,-47.1447944641113
1.59554031131972E-06,-46.7043151855469
1.60106121205093E-06,-46.2169456481934
1.60658211278214E-06,-45.6902008056641
1.61210301351335E-06,-45.131591796875
1.61762391424456E-06,-44.5486373901367
1.62314481497577E-06,-43.9488487243652
1.62866571570698E-06,-43.3397445678711
1.63418661643819E-06,-42.728832244873
1.6397075171694E-06,-42.1236305236816
1.64522841790061E-06,-41.5316505432129
1.65074931863182E-06,-40.9604072570801
1.65627021936303E-06,-40.4173851013184
1.66179112009424E-06,-39.8843536376953
1.66731202082545E-06,-39.3442649841309
1.67283292155666E-06,-38.8012351989746
1.67835382228787E-06,-38.2593765258789
1.68387472301908E-06,-37.7228050231934
1.68939562375029E-06,-37.1956405639648
1.6949165244815E-06,-36.6819915771484
1.70043742521271E-06,-36.1859817504883
1.70595832594392E-06,-35.7117233276367
1.71147922667513E-06,-35.2633323669434
1.71700012740634E-06,-34.8449249267578
1.72252102813755E-06,-34.4606170654297
1.72804192886876E-06,-34.1036796569824
1.73356282959997E-06,-33.763973236084
1.73908373033118E-06,-33.4429893493652
1.74460463106239E-06,-33.1422157287598
1.7501255317936E-06,-32.863151550293
1.75564643252481E-06,-32.607292175293
1.76116733325602E-06,-32.3761367797852
1.76668823398723E-06,-32.1711769104004
1.77220913471844E-06,-31.9939136505127
1.77773003544965E-06,-31.8458423614502
1.78325093618086E-06,-31.728458404541
1.78877183691207E-06,-31.6432571411133
1.79429273764328E-06,-31.587028503418
1.79981363837449E-06,-31.5540657043457
1.8053345391057E-06,-31.545768737793
1.81085543983691E-06,-31.5636177062988
1.81637634056812E-06,-31.6090869903564
1.82189724129933E-06,-31.6836566925049
1.82741814203054E-06,-31.7888050079346
1.83293904276175E-06,-31.9260063171387
1.83845994349296E-06,-32.0967407226563
1.84398084422417E-06,-32.3024864196777
1.84950174495538E-06,-32.5447158813477
1.85502264568659E-06,-32.8249130249023
1.8605435464178E-06,-33.142520904541
1.86606444714901E-06,-33.4941520690918
1.87158534788022E-06,-33.8796577453613
1.87710624861143E-06,-34.2989959716797
1.88262714934264E-06,-34.7521171569824
1.88814805007385E-06,-35.2389755249023
1.89366895080506E-06,-35.7595252990723
1.89918985153627E-06,-36.313720703125
1.90471075226748E-06,-36.9015159606934
1.91023165299869E-06,-37.5228614807129
1.9157525537299E-06,-38.1777114868164
1.92127345446111E-06,-38.866024017334
1.92679435519232E-06,-39.6117553710938
1.93231525592353E-06,-40.4647178649902
1.93783615665474E-06,-41.404857635498
1.94335705738595E-06,-42.4087677001953
1.94887795811716E-06,-43.4530410766602
1.95439885884837E-06,-44.5142631530762
1.95991975957958E-06,-45.5690231323242
1.9654406603108E-06,-46.5939140319824
1.970961561042E-06,-47.5655212402344
1.97648246177322E-06,-48.4604415893555
1.98200336250443E-06,-49.255256652832
1.98752426323564E-06,-49.9265594482422
1.99304516396685E-06,-50.4638214111328
1.99856606469806E-06,-50.902027130127
2.00408696542927E-06,-51.2545318603516
2.00960786616048E-06,-51.5319328308105
2.01512876689169E-06,-51.7448234558105
2.0206496676229E-06,-51.9038047790527
2.02617056835411E-06,-52.0194702148438
2.03169146908532E-06,-52.1024208068848
2.03721236981653E-06,-52.1632499694824
2.04273327054774E-06,-52.2125549316406
2.04825417127895E-06,-52.2609329223633
2.05377507201016E-06,-52.3189811706543
2.05929597274137E-06,-52.3864059448242
2.06481687347258E-06,-52.4241485595703
2.07033777420379E-06,-52.431827545166
2.075858674935E-06,-52.4143943786621
2.08137957566621E-06,-52.3767929077148
2.08690047639742E-06,-52.323974609375
2.09242137712863E-06,-52.2608833312988
2.09794227785984E-06,-52.1924667358398
2.10346317859105E-06,-52.1236763000488
2.10898407932226E-06,-52.0594520568848
2.11450498005347E-06,-52.0047454833984
2.12002588078468E-06,-51.9645080566406
2.12554678151589E-06,-51.9443626403809
2.1310676822471E-06,-51.9487724304199
2.13658858297831E-06,-51.9720916748047
2.14210948370952E-06,-52.0075645446777
2.14763038444073E-06,-52.0484466552734
2.15315128517194E-06,-52.0879821777344
2.15867218590315E-06,-52.1194267272949
2.16419308663436E-06,-52.1360244750977
2.16971398736557E-06,-52.1310272216797
2.17523488809678E-06,-52.0976867675781
2.18075578882799E-06,-52.0292510986328
2.1862766895592E-06,-51.9189682006836
2.19179759029041E-06,-51.7573280334473
2.19731849102162E-06,-51.5231056213379
2.20283939175283E-06,-51.2252655029297
2.20836029248404E-06,-50.8786163330078
2.21388119321525E-06,-50.4979629516602
2.21940209394646E-06,-50.0981178283691
2.22492299467767E-06,-49.6938934326172
2.23044389540888E-06,-49.3000907897949
2.23596479614009E-06,-48.931526184082
2.2414856968713E-06,-48.6030082702637
2.24700659760251E-06,-48.329345703125
2.25252749833372E-06,-48.1253433227539
2.25804839906493E-06,-48.0015525817871
2.26356929979614E-06,-47.9202117919922
2.26909020052735E-06,-47.8698654174805
2.27461110125856E-06,-47.8517761230469
2.28013200198977E-06,-47.8672065734863
2.28565290272098E-06,-47.917423248291
2.29117380345219E-06,-48.0036849975586
2.2966947041834E-06,-48.1272621154785
2.30221560491461E-06,-48.2894134521484
2.30773650564582E-06,-48.4914054870605
2.31325740637703E-06,-48.7344932556152
2.31877830710824E-06,-49.0199508666992
2.32429920783945E-06,-49.3540115356445
2.32982010857066E-06,-49.8158874511719
2.33534100930187E-06,-50.4075088500977
2.34086191003308E-06,-51.0959434509277
2.34638281076429E-06,-51.8482666015625
2.3519037114955E-06,-52.6315460205078
2.35742461222671E-06,-53.4128570556641
2.36294551295792E-06,-54.1592674255371
2.36846641368913E-06,-54.8378448486328
2.37398731442034E-06,-55.4156684875488
2.37950821515155E-06,-55.8597984313965
2.38502911588276E-06,-56.1373138427734
2.39055001661397E-06,-56.2154884338379
2.39607091734518E-06,-56.0834007263184
2.40159181807639E-06,-55.7689628601074
2.4071127188076E-06,-55.3038444519043
2.41263361953881E-06,-54.7197265625
2.41815452027002E-06,-54.0482940673828
2.42367542100123E-06,-53.3212203979492
2.42919632173244E-06,-52.5701866149902
2.43471722246365E-06,-51.8268737792969
2.44023812319486E-06,-51.1229629516602
2.44575902392607E-06,-50.4901313781738
2.45127992465728E-06,-49.9600601196289
2.45680082538849E-06,-49.5630264282227
2.4623217261197E-06,-49.2269096374512
2.46784262685091E-06,-48.9021530151367
2.47336352758212E-06,-48.5967330932617
2.47888442831333E-06,-48.3186073303223
2.48440532904454E-06,-48.075756072998
2.48992622977575E-06,-47.876148223877
2.49544713050696E-06,-47.7277488708496
2.50096803123817E-06,-47.6385307312012
2.50648893196938E-06,-47.6164665222168
2.51200983270059E-06,-47.6695175170898
2.5175307334318E-06,-47.8056640625
2.52305163416301E-06,-48.0330581665039
2.52857253489422E-06,-48.4152946472168
2.53409343562543E-06,-48.9735794067383
2.53961433635665E-06,-49.6710052490234
2.54513523708785E-06,-50.4706726074219
2.55065613781907E-06,-51.3356819152832
2.55617703855028E-06,-52.2291259765625
2.56169793928149E-06,-53.1141014099121
2.5672188400127E-06,-53.9537124633789
2.57273974074391E-06,-54.7110557556152
2.57826064147512E-06,-55.3492202758789
2.58378154220633E-06,-55.8313140869141
2.58930244293754E-06,-56.1204299926758
2.59482334366875E-06,-56.2075805664063
2.60034424439996E-06,-56.128231048584
2.60586514513117E-06,-55.9101333618164
2.61138604586238E-06,-55.5810279846191
2.61690694659359E-06,-55.1686630249023
2.6224278473248E-06,-54.7007865905762
2.62794874805601E-06,-54.205135345459
2.63346964878722E-06,-53.7094650268555
2.63899054951843E-06,-53.2415161132813
2.64451145024964E-06,-52.8290328979492
2.65003235098085E-06,-52.4997596740723
2.65555325171206E-06,-52.2814483642578
2.66107415244327E-06,-52.1456413269043
2.66659505317448E-06,-52.0258331298828
2.67211595390569E-06,-51.9260063171387
2.6776368546369E-06,-51.850715637207
2.68315775536811E-06,-51.8045234680176
2.68867865609932E-06,-51.7919845581055
2.69419955683053E-06,-51.8176574707031
2.69972045756174E-06,-51.886100769043
2.70524135829295E-06,-52.0018730163574
2.71076225902416E-06,-52.1695289611816
2.71628315975537E-06,-52.393627166748
2.72180406048658E-06,-52.6787300109863
