Trace
Swept SA
A.19.55,N9020B
508 AB2 B25 B40 B85 DP2 DP4 EP2 FS1 FS2 MPB RTL ,01
Segment,0
Number of Points,81920
Sweep Time,0.0004096
Start Frequency,2400000000
Stop Frequency,2400000000
Average Count,0
Average Type,LogPower(Video)
RBW,3000000
RBW Filter,Gaussian
RBW Filter BW,3dB
VBW,3000000
Sweep Type,Swept
X Axis Scale,Lin
PreAmp State,Off
PreAmp Band,Low
Trigger Source,Ext1
Trigger Level,1.2
Trigger Slope,Positive
Trigger Delay,1E-06
Phase Noise Optimization,Fast
Swept If Gain,Low
FFT If Gain,Autorange
RF Coupling,AC
FFT Width,411900
Ext Ref,10000000
Input,RF
RF Calibrator,Off
Attenuation,6
Ref Level Offset,0
External Gain,0
Trace Type,Clearwrite
Detector,Normal
Trace Math,Off
Trace Math Oper1,Trace5
Trace Math Oper2,Trace6
Trace Math Offset,0
Normalize,Off
Trace Name,Trace1
X Axis Units,s
Y Axis Units,dBm
DATA
0,-73.7634353637695
5.00006103590132E-09,-74.1105728149414
1.00001220718026E-08,-74.4367065429688
1.50001831077039E-08,-74.7446212768555
2.00002441436053E-08,-75.037109375
2.50003051795066E-08,-75.3169555664063
3.00003662154079E-08,-75.5869522094727
3.50004272513092E-08,-75.8498916625977
4.00004882872105E-08,-76.1085510253906
4.50005493231118E-08,-76.36572265625
5.00006103590132E-08,-76.6241989135742
5.50006713949145E-08,-76.8867645263672
6.00007324308158E-08,-77.1537475585938
6.50007934667171E-08,-77.3971786499023
7.00008545026184E-08,-77.6141815185547
7.50009155385197E-08,-77.8120651245117
8.00009765744211E-08,-77.998161315918
8.50010376103224E-08,-78.1797943115234
9.00010986462237E-08,-78.3642730712891
9.5001159682125E-08,-78.5589294433594
1.00001220718026E-07,-78.7710876464844
1.05001281753928E-07,-79.0080718994141
1.10001342789829E-07,-79.2771911621094
1.1500140382573E-07,-79.5857772827148
1.20001464861632E-07,-79.9411468505859
1.25001525897533E-07,-80.3506317138672
1.30001586933434E-07,-80.8532485961914
1.35001647969336E-07,-81.4671783447266
1.40001709005237E-07,-82.1685028076172
1.45001770041138E-07,-82.9332885742188
1.50001831077039E-07,-83.7375946044922
1.55001892112941E-07,-84.5574951171875
1.60001953148842E-07,-85.3690567016602
1.65002014184743E-07,-86.1483459472656
1.70002075220645E-07,-86.8714294433594
1.75002136256546E-07,-87.5143814086914
1.80002197292447E-07,-88.0532684326172
1.85002258328349E-07,-88.4641571044922
1.9000231936425E-07,-88.7231140136719
1.95002380400151E-07,-88.8092269897461
2.00002441436053E-07,-88.7302093505859
2.05002502471954E-07,-88.5091705322266
2.10002563507855E-07,-88.1693572998047
2.15002624543757E-07,-87.7339935302734
2.20002685579658E-07,-87.226318359375
2.25002746615559E-07,-86.6695709228516
2.30002807651461E-07,-86.0869750976563
2.35002868687362E-07,-85.5017623901367
2.40002929723263E-07,-84.9371871948242
2.45002990759165E-07,-84.4164657592773
2.50003051795066E-07,-83.9628372192383
2.55003112830967E-07,-83.5995330810547
2.60003173866868E-07,-83.3442993164063
2.6500323490277E-07,-83.1415557861328
2.70003295938671E-07,-82.9695663452148
2.75003356974572E-07,-82.8267288208008
2.80003418010474E-07,-82.7114562988281
2.85003479046375E-07,-82.6221389770508
2.90003540082276E-07,-82.5572052001953
2.95003601118178E-07,-82.5150375366211
3.00003662154079E-07,-82.4940490722656
3.0500372318998E-07,-82.4926452636719
3.10003784225882E-07,-82.5092391967773
3.15003845261783E-07,-82.5422134399414
3.20003906297684E-07,-82.5899963378906
3.25003967333586E-07,-82.6509780883789
3.30004028369487E-07,-82.7469100952148
3.35004089405388E-07,-82.8942642211914
3.4000415044129E-07,-83.0835418701172
3.45004211477191E-07,-83.3052368164063
3.50004272513092E-07,-83.5498580932617
3.55004333548993E-07,-83.8078994750977
3.60004394584895E-07,-84.0698547363281
3.65004455620796E-07,-84.3262329101563
3.70004516656697E-07,-84.5675277709961
3.75004577692599E-07,-84.7842407226563
3.800046387285E-07,-84.9668655395508
3.85004699764401E-07,-85.1059112548828
3.90004760800303E-07,-85.1918716430664
3.95004821836204E-07,-85.2186889648438
4.00004882872105E-07,-85.1955718994141
4.05004943908007E-07,-85.1299362182617
4.10005004943908E-07,-85.0286026000977
4.15005065979809E-07,-84.8984298706055
4.20005127015711E-07,-84.7462539672852
4.25005188051612E-07,-84.5789031982422
4.30005249087513E-07,-84.4032287597656
4.35005310123415E-07,-84.22607421875
4.40005371159316E-07,-84.0542678833008
4.45005432195217E-07,-83.894660949707
4.50005493231119E-07,-83.7540817260742
4.5500555426702E-07,-83.6393890380859
4.60005615302921E-07,-83.5544891357422
4.65005676338822E-07,-83.4677124023438
4.70005737374724E-07,-83.3724670410156
4.75005798410625E-07,-83.273681640625
4.80005859446526E-07,-83.1762847900391
4.85005920482428E-07,-83.0852203369141
4.90005981518329E-07,-83.0054092407227
4.9500604255423E-07,-82.9417953491211
5.00006103590132E-07,-82.8993072509766
5.05006164626033E-07,-82.8828811645508
5.10006225661934E-07,-82.8974533081055
5.15006286697836E-07,-82.9479522705078
5.20006347733737E-07,-83.039306640625
5.25006408769638E-07,-83.1764602661133
5.3000646980554E-07,-83.4011764526367
5.35006530841441E-07,-83.7361602783203
5.40006591877342E-07,-84.1577606201172
5.45006652913243E-07,-84.6423263549805
5.50006713949145E-07,-85.1662063598633
5.55006774985046E-07,-85.7057495117188
5.60006836020948E-07,-86.2372970581055
5.65006897056849E-07,-86.7372131347656
5.7000695809275E-07,-87.1818237304688
5.75007019128651E-07,-87.547492980957
5.80007080164553E-07,-87.8105697631836
5.85007141200454E-07,-87.9473876953125
5.90007202236355E-07,-87.9343109130859
5.95007263272257E-07,-87.7505874633789
6.00007324308158E-07,-87.4036560058594
6.05007385344059E-07,-86.9164199829102
6.10007446379961E-07,-86.3119125366211
6.15007507415862E-07,-85.6131744384766
6.20007568451763E-07,-84.8432312011719
6.25007629487665E-07,-84.0251312255859
6.30007690523566E-07,-83.1819000244141
6.35007751559467E-07,-82.3365783691406
6.40007812595369E-07,-81.5121994018555
6.4500787363127E-07,-80.7318115234375
6.50007934667171E-07,-80.0184326171875
6.55007995703072E-07,-79.3951110839844
6.60008056738974E-07,-78.8794326782227
6.65008117774875E-07,-78.4162445068359
6.70008178810776E-07,-77.984001159668
6.75008239846678E-07,-77.5811309814453
6.80008300882579E-07,-77.2060699462891
6.8500836191848E-07,-76.8572387695313
6.90008422954382E-07,-76.533088684082
6.95008483990283E-07,-76.2320404052734
7.00008545026184E-07,-75.9525299072266
7.05008606062086E-07,-75.692985534668
7.10008667097987E-07,-75.4518432617188
7.15008728133888E-07,-75.2275466918945
7.2000878916979E-07,-75.0185089111328
7.25008850205691E-07,-74.8231735229492
7.30008911241592E-07,-74.6521453857422
7.35008972277494E-07,-74.5143585205078
7.40009033313395E-07,-74.4056930541992
7.45009094349296E-07,-74.3220520019531
7.50009155385198E-07,-74.2593383789063
7.55009216421099E-07,-74.2134399414063
7.60009277457E-07,-74.1802597045898
7.65009338492901E-07,-74.1557006835938
7.70009399528803E-07,-74.1356430053711
7.75009460564704E-07,-74.1159973144531
7.80009521600605E-07,-74.092658996582
7.85009582636507E-07,-74.0615158081055
7.90009643672408E-07,-74.0184783935547
7.95009704708309E-07,-73.9628067016602
8.00009765744211E-07,-73.9036712646484
8.05009826780112E-07,-73.8427734375
8.10009887816013E-07,-73.7810592651367
8.15009948851915E-07,-73.7194747924805
8.20010009887816E-07,-73.6589584350586
8.25010070923717E-07,-73.6004638671875
8.30010131959619E-07,-73.5449447631836
8.3501019299552E-07,-73.4933242797852
8.40010254031421E-07,-73.4465713500977
8.45010315067323E-07,-73.4056243896484
8.50010376103224E-07,-73.3714218139648
8.55010437139125E-07,-73.3449172973633
8.60010498175026E-07,-73.3264846801758
8.65010559210928E-07,-73.3098449707031
8.70010620246829E-07,-73.2940673828125
8.7501068128273E-07,-73.2804946899414
8.80010742318632E-07,-73.2704849243164
8.85010803354533E-07,-73.2653961181641
8.90010864390434E-07,-73.2665786743164
8.95010925426336E-07,-73.2753829956055
9.00010986462237E-07,-73.2931747436523
9.05011047498138E-07,-73.3212966918945
9.1001110853404E-07,-73.3611068725586
9.15011169569941E-07,-73.4139633178711
9.20011230605842E-07,-73.4812164306641
9.25011291641744E-07,-73.5642242431641
9.30011352677645E-07,-73.6673583984375
9.35011413713546E-07,-73.7920532226563
9.40011474749448E-07,-73.9352645874023
9.45011535785349E-07,-74.0939636230469
9.5001159682125E-07,-74.2650985717773
9.55011657857151E-07,-74.4456329345703
9.60011718893053E-07,-74.6325225830078
9.65011779928954E-07,-74.8227310180664
9.70011840964855E-07,-75.0132064819336
9.75011902000757E-07,-75.2009201049805
9.80011963036658E-07,-75.3828201293945
9.85012024072559E-07,-75.5558624267578
9.90012085108461E-07,-75.7170181274414
9.95012146144362E-07,-75.8656311035156
1.00001220718026E-06,-76.0082473754883
1.00501226821616E-06,-76.1461944580078
1.01001232925207E-06,-76.2802734375
1.01501239028797E-06,-76.4113006591797
1.02001245132387E-06,-76.5400772094727
1.02501251235977E-06,-76.6674041748047
1.03001257339567E-06,-76.7940902709961
1.03501263443157E-06,-76.9209442138672
1.04001269546747E-06,-77.0487670898438
1.04501275650338E-06,-77.1783599853516
1.05001281753928E-06,-77.3105392456055
1.05501287857518E-06,-77.4461059570313
1.06001293961108E-06,-77.5859603881836
1.06501300064698E-06,-77.731575012207
1.07001306168288E-06,-77.8822402954102
1.07501312271878E-06,-78.0367050170898
1.08001318375468E-06,-78.1937103271484
1.08501324479059E-06,-78.3520050048828
1.09001330582649E-06,-78.5103302001953
1.09501336686239E-06,-78.6674346923828
1.10001342789829E-06,-78.8220748901367
1.10501348893419E-06,-78.9729843139648
1.11001354997009E-06,-79.1189117431641
1.11501361100599E-06,-79.2586059570313
1.1200136720419E-06,-79.3908081054688
1.1250137330778E-06,-79.514274597168
1.1300137941137E-06,-79.6361618041992
1.1350138551496E-06,-79.7627182006836
1.1400139161855E-06,-79.8913040161133
1.1450139772214E-06,-80.0192794799805
1.1500140382573E-06,-80.1440048217773
1.1550140992932E-06,-80.2628479003906
1.16001416032911E-06,-80.3731536865234
1.16501422136501E-06,-80.4722900390625
1.17001428240091E-06,-80.5576171875
1.17501434343681E-06,-80.6264953613281
1.18001440447271E-06,-80.6762847900391
1.18501446550861E-06,-80.704345703125
1.19001452654451E-06,-80.7080383300781
1.19501458758041E-06,-80.6831207275391
1.20001464861632E-06,-80.6251068115234
1.20501470965222E-06,-80.5380935668945
1.21001477068812E-06,-80.4266967773438
1.21501483172402E-06,-80.2955474853516
1.22001489275992E-06,-80.1492691040039
1.22501495379582E-06,-79.9924850463867
1.23001501483172E-06,-79.8298263549805
1.23501507586763E-06,-79.6659240722656
1.24001513690353E-06,-79.5053863525391
1.24501519793943E-06,-79.3528594970703
1.25001525897533E-06,-79.2129516601563
1.25501532001123E-06,-79.0902938842773
1.26001538104713E-06,-78.986946105957
1.26501544208303E-06,-78.8744659423828
1.27001550311893E-06,-78.7482986450195
1.27501556415484E-06,-78.6142501831055
1.28001562519074E-06,-78.4781494140625
1.28501568622664E-06,-78.3458023071289
1.29001574726254E-06,-78.2230224609375
1.29501580829844E-06,-78.1156387329102
1.30001586933434E-06,-78.0294494628906
1.30501593037024E-06,-77.9702835083008
1.31001599140614E-06,-77.9439468383789
1.31501605244205E-06,-77.9562606811523
1.32001611347795E-06,-78.0130386352539
1.32501617451385E-06,-78.1200942993164
1.33001623554975E-06,-78.2861709594727
1.33501629658565E-06,-78.5106658935547
1.34001635762155E-06,-78.7854080200195
1.34501641865745E-06,-79.1022109985352
1.35001647969336E-06,-79.4529037475586
1.35501654072926E-06,-79.8292922973633
1.36001660176516E-06,-80.2232131958008
1.36501666280106E-06,-80.6264724731445
1.37001672383696E-06,-81.0308990478516
1.37501678487286E-06,-81.4283142089844
1.38001684590876E-06,-81.8105316162109
1.38501690694466E-06,-82.1693725585938
1.39001696798057E-06,-82.4966583251953
1.39501702901647E-06,-82.799690246582
1.40001709005237E-06,-83.1209335327148
1.40501715108827E-06,-83.4567794799805
1.41001721212417E-06,-83.7997741699219
1.41501727316007E-06,-84.1424560546875
1.42001733419597E-06,-84.4773788452148
1.42501739523188E-06,-84.7970886230469
1.43001745626778E-06,-85.0941162109375
1.43501751730368E-06,-85.3610153198242
1.44001757833958E-06,-85.5903244018555
1.44501763937548E-06,-85.7745971679688
1.45001770041138E-06,-85.906364440918
1.45501776144728E-06,-85.9781799316406
1.46001782248318E-06,-85.9826965332031
1.46501788351909E-06,-85.9183502197266
1.47001794455499E-06,-85.7918701171875
1.47501800559089E-06,-85.6106109619141
1.48001806662679E-06,-85.3819274902344
1.48501812766269E-06,-85.1131896972656
1.49001818869859E-06,-84.8117446899414
1.49501824973449E-06,-84.4849548339844
1.5000183107704E-06,-84.1401748657227
1.5050183718063E-06,-83.7847747802734
1.5100184328422E-06,-83.4261016845703
1.5150184938781E-06,-83.0715103149414
1.520018554914E-06,-82.7283782958984
1.5250186159499E-06,-82.4040451049805
1.5300186769858E-06,-82.0914306640625
1.5350187380217E-06,-81.7775421142578
1.54001879905761E-06,-81.4608383178711
1.54501886009351E-06,-81.1398086547852
1.55001892112941E-06,-80.8129119873047
1.55501898216531E-06,-80.4786224365234
1.56001904320121E-06,-80.1354217529297
1.56501910423711E-06,-79.7817840576172
1.57001916527301E-06,-79.4161758422852
1.57501922630891E-06,-79.0370712280273
1.58001928734482E-06,-78.642951965332
1.58501934838072E-06,-78.2322845458984
1.59001940941662E-06,-77.8035430908203
1.59501947045252E-06,-77.3529357910156
1.60001953148842E-06,-76.8741455078125
1.60501959252432E-06,-76.3706207275391
1.61001965356022E-06,-75.8464660644531
1.61501971459613E-06,-75.3057861328125
1.62001977563203E-06,-74.7527008056641
1.62501983666793E-06,-74.1913070678711
1.63001989770383E-06,-73.625732421875
1.63501995873973E-06,-73.0600662231445
1.64002001977563E-06,-72.4984283447266
1.64502008081153E-06,-71.9449310302734
1.65002014184743E-06,-71.403678894043
1.65502020288334E-06,-70.878776550293
1.66002026391924E-06,-70.3726425170898
1.66502032495514E-06,-69.866828918457
1.67002038599104E-06,-69.3573913574219
1.67502044702694E-06,-68.8470687866211
1.68002050806284E-06,-68.3386306762695
1.68502056909874E-06,-67.8348236083984
1.69002063013465E-06,-67.3384094238281
1.69502069117055E-06,-66.8521347045898
1.70002075220645E-06,-66.3787612915039
1.70502081324235E-06,-65.9210433959961
1.71002087427825E-06,-65.4817352294922
1.71502093531415E-06,-65.063591003418
1.72002099635005E-06,-64.6693725585938
1.72502105738595E-06,-64.3018188476563
1.73002111842186E-06,-63.9550094604492
1.73502117945776E-06,-63.6218452453613
1.74002124049366E-06,-63.3033561706543
1.74502130152956E-06,-63.0005722045898
1.75002136256546E-06,-62.7145118713379
1.75502142360136E-06,-62.4462127685547
1.76002148463726E-06,-62.1966896057129
1.76502154567316E-06,-61.9669799804688
1.77002160670907E-06,-61.7581062316895
1.77502166774497E-06,-61.5710945129395
1.78002172878087E-06,-61.4069747924805
1.78502178981677E-06,-61.2667694091797
1.79002185085267E-06,-61.1515121459961
1.79502191188857E-06,-61.0606231689453
1.80002197292447E-06,-60.9897270202637
1.80502203396038E-06,-60.9390029907227
1.81002209499628E-06,-60.9090194702148
1.81502215603218E-06,-60.9003410339355
1.82002221706808E-06,-60.9135360717773
1.82502227810398E-06,-60.9491767883301
1.83002233913988E-06,-61.0078315734863
1.83502240017578E-06,-61.0900650024414
1.84002246121168E-06,-61.1964454650879
1.84502252224759E-06,-61.3275451660156
1.85002258328349E-06,-61.4839286804199
1.85502264431939E-06,-61.6661682128906
1.86002270535529E-06,-61.8751335144043
1.86502276639119E-06,-62.1146697998047
1.87002282742709E-06,-62.3843116760254
1.87502288846299E-06,-62.682186126709
1.8800229494989E-06,-63.006420135498
1.8850230105348E-06,-63.3551330566406
1.8900230715707E-06,-63.7264595031738
1.8950231326066E-06,-64.1185150146484
1.9000231936425E-06,-64.5294342041016
1.9050232546784E-06,-64.9573440551758
1.9100233157143E-06,-65.4003601074219
1.9150233767502E-06,-65.8566131591797
1.92002343778611E-06,-66.3242340087891
1.92502349882201E-06,-66.8013381958008
1.93002355985791E-06,-67.3056259155273
1.93502362089381E-06,-67.8511352539063
1.94002368192971E-06,-68.4305267333984
1.94502374296561E-06,-69.0364685058594
1.95002380400151E-06,-69.6616134643555
1.95502386503741E-06,-70.2986221313477
1.96002392607332E-06,-70.9401626586914
1.96502398710922E-06,-71.5788955688477
1.97002404814512E-06,-72.2074813842773
1.97502410918102E-06,-72.8185729980469
1.98002417021692E-06,-73.4048461914063
1.98502423125282E-06,-73.9589462280273
1.99002429228872E-06,-74.4735412597656
1.99502435332463E-06,-74.9481658935547
2.00002441436053E-06,-75.4015808105469
2.00502447539643E-06,-75.8361358642578
2.01002453643233E-06,-76.2526245117188
2.01502459746823E-06,-76.6518173217773
2.02002465850413E-06,-77.0345230102539
2.02502471954003E-06,-77.4015121459961
2.03002478057593E-06,-77.7535781860352
2.03502484161184E-06,-78.0915069580078
2.04002490264774E-06,-78.4160919189453
2.04502496368364E-06,-78.7281112670898
2.05002502471954E-06,-79.0283508300781
2.05502508575544E-06,-79.3175964355469
2.06002514679134E-06,-79.5984420776367
2.06502520782724E-06,-79.8922958374023
2.07002526886315E-06,-80.1987228393555
2.07502532989905E-06,-80.5094528198242
2.08002539093495E-06,-80.8162002563477
2.08502545197085E-06,-81.1106948852539
2.09002551300675E-06,-81.3846588134766
2.09502557404265E-06,-81.6298065185547
2.10002563507855E-06,-81.8378753662109
2.10502569611445E-06,-82.0005722045898
2.11002575715036E-06,-82.1096267700195
2.11502581818626E-06,-82.1567611694336
2.12002587922216E-06,-82.1336975097656
2.12502594025806E-06,-82.0321655273438
2.13002600129396E-06,-81.8361206054688
2.13502606232986E-06,-81.5439910888672
2.14002612336576E-06,-81.1691589355469
2.14502618440166E-06,-80.7250213623047
2.15002624543757E-06,-80.2249755859375
2.15502630647347E-06,-79.6823959350586
2.16002636750937E-06,-79.1106872558594
2.16502642854527E-06,-78.5232391357422
2.17002648958117E-06,-77.9334335327148
2.17502655061707E-06,-77.3546752929688
2.18002661165297E-06,-76.8003540039063
2.18502667268888E-06,-76.2838516235352
2.19002673372478E-06,-75.8185653686523
2.19502679476068E-06,-75.4014129638672
2.20002685579658E-06,-74.9873123168945
2.20502691683248E-06,-74.5750961303711
2.21002697786838E-06,-74.1675262451172
2.21502703890428E-06,-73.7673645019531
2.22002709994018E-06,-73.3773651123047
2.22502716097609E-06,-73.0002975463867
2.23002722201199E-06,-72.638916015625
2.23502728304789E-06,-72.2959823608398
2.24002734408379E-06,-71.9742584228516
2.24502740511969E-06,-71.6764907836914
2.25002746615559E-06,-71.4054565429688
2.25502752719149E-06,-71.1639022827148
2.2600275882274E-06,-70.9540939331055
2.2650276492633E-06,-70.7711715698242
2.2700277102992E-06,-70.6125869750977
2.2750277713351E-06,-70.4775314331055
2.280027832371E-06,-70.3651962280273
2.2850278934069E-06,-70.2747650146484
2.2900279544428E-06,-70.2054290771484
2.2950280154787E-06,-70.1563949584961
2.30002807651461E-06,-70.126838684082
2.30502813755051E-06,-70.115966796875
2.31002819858641E-06,-70.1229553222656
2.31502825962231E-06,-70.1470031738281
2.32002832065821E-06,-70.1873016357422
2.32502838169411E-06,-70.243049621582
2.33002844273001E-06,-70.3238143920898
2.33502850376592E-06,-70.4369659423828
2.34002856480182E-06,-70.5784072875977
2.34502862583772E-06,-70.7440185546875
2.35002868687362E-06,-70.9296798706055
2.35502874790952E-06,-71.1312789916992
2.36002880894542E-06,-71.3447113037109
2.36502886998132E-06,-71.5658645629883
2.37002893101722E-06,-71.7906112670898
2.37502899205313E-06,-72.0148544311523
2.38002905308903E-06,-72.2344665527344
2.38502911412493E-06,-72.4453506469727
2.39002917516083E-06,-72.6433792114258
2.39502923619673E-06,-72.8307952880859
2.40002929723263E-06,-73.0250015258789
2.40502935826853E-06,-73.2253341674805
2.41002941930443E-06,-73.429557800293
2.41502948034034E-06,-73.6354675292969
2.42002954137624E-06,-73.8408203125
2.42502960241214E-06,-74.0434036254883
2.43002966344804E-06,-74.2409973144531
2.43502972448394E-06,-74.4313659667969
2.44002978551984E-06,-74.6123046875
2.44502984655574E-06,-74.7815780639648
2.45002990759165E-06,-74.9369583129883
2.45502996862755E-06,-75.0762329101563
2.46003002966345E-06,-75.1973724365234
2.46503009069935E-06,-75.3017654418945
