Trace
Swept SA
A.19.55,N9020B
508 AB2 B25 B40 B85 DP2 DP4 EP2 FS1 FS2 MPB RTL ,01
Segment,0
Number of Points,81920
Sweep Time,0.000452266667
Start Frequency,2400000000
Stop Frequency,2400000000
Average Count,0
Average Type,LogPower(Video)
RBW,3000000
RBW Filter,Gaussian
RBW Filter BW,3dB
VBW,3000000
Sweep Type,Swept
X Axis Scale,Lin
PreAmp State,Off
PreAmp Band,Low
Trigger Source,Ext1
Trigger Level,1.2
Trigger Slope,Positive
Trigger Delay,1E-06
Phase Noise Optimization,Fast
Swept If Gain,Low
FFT If Gain,Autorange
RF Coupling,AC
FFT Width,411900
Ext Ref,10000000
Input,RF
RF Calibrator,Off
Attenuation,6
Ref Level Offset,0
External Gain,0
Trace Type,Clearwrite
Detector,Normal
Trace Math,Off
Trace Math Oper1,Trace5
Trace Math Oper2,Trace6
Trace Math Offset,0
Normalize,Off
Trace Name,Trace1
X Axis Units,s
Y Axis Units,dBm
DATA
0,-80.2629241943359
5.5209007312101E-09,-80.4020004272461
1.10418014624202E-08,-80.5315399169922
1.65627021936303E-08,-80.6486587524414
2.20836029248404E-08,-80.7504501342773
2.76045036560505E-08,-80.8340377807617
3.31254043872606E-08,-80.8965301513672
3.86463051184707E-08,-80.9350204467773
4.41672058496808E-08,-80.9466171264648
4.96881065808909E-08,-80.9284439086914
5.5209007312101E-08,-80.8775939941406
6.07299080433111E-08,-80.7857894897461
6.62508087745212E-08,-80.6465606689453
7.17717095057313E-08,-80.4670333862305
7.72926102369414E-08,-80.2545318603516
8.28135109681515E-08,-80.0163803100586
8.83344116993616E-08,-79.7599105834961
9.38553124305717E-08,-79.4924392700195
9.93762131617818E-08,-79.2212982177734
1.04897113892992E-07,-78.9538116455078
1.10418014624202E-07,-78.6973114013672
1.15938915355412E-07,-78.4591217041016
1.21459816086622E-07,-78.2465667724609
1.26980716817832E-07,-78.054801940918
1.32501617549042E-07,-77.8611526489258
1.38022518280252E-07,-77.6670837402344
1.43543419011463E-07,-77.4750595092773
1.49064319742673E-07,-77.2875518798828
1.54585220473883E-07,-77.1070175170898
1.60106121205093E-07,-76.935920715332
1.65627021936303E-07,-76.7767333984375
1.71147922667513E-07,-76.6319122314453
1.76668823398723E-07,-76.5039367675781
1.82189724129933E-07,-76.395263671875
1.87710624861143E-07,-76.3083572387695
1.93231525592353E-07,-76.2422180175781
1.98752426323564E-07,-76.1884613037109
2.04273327054774E-07,-76.1474533081055
2.09794227785984E-07,-76.1201858520508
2.15315128517194E-07,-76.1076507568359
2.20836029248404E-07,-76.11083984375
2.26356929979614E-07,-76.1307373046875
2.31877830710824E-07,-76.1683349609375
2.37398731442034E-07,-76.2246322631836
2.42919632173244E-07,-76.3006057739258
2.48440532904454E-07,-76.3972549438477
2.53961433635664E-07,-76.5155715942383
2.59482334366875E-07,-76.6546401977539
2.65003235098085E-07,-76.8084869384766
2.70524135829295E-07,-76.9778671264648
2.76045036560505E-07,-77.1642303466797
2.81565937291715E-07,-77.3690490722656
2.87086838022925E-07,-77.5937805175781
2.92607738754135E-07,-77.8398895263672
2.98128639485345E-07,-78.1088409423828
3.03649540216555E-07,-78.4020919799805
3.09170440947765E-07,-78.7211151123047
3.14691341678976E-07,-79.0673599243164
3.20212242410186E-07,-79.4422988891602
3.25733143141396E-07,-79.8546371459961
3.31254043872606E-07,-80.3357772827148
3.36774944603816E-07,-80.8770217895508
3.42295845335026E-07,-81.4641799926758
3.47816746066236E-07,-82.0830459594727
3.53337646797446E-07,-82.7194366455078
3.58858547528656E-07,-83.3591461181641
3.64379448259866E-07,-83.9879837036133
3.69900348991077E-07,-84.5917510986328
3.75421249722287E-07,-85.15625
3.80942150453497E-07,-85.6672897338867
3.86463051184707E-07,-86.1106796264648
3.91983951915917E-07,-86.4778671264648
3.97504852647127E-07,-86.7986679077148
4.03025753378337E-07,-87.0816116333008
4.08546654109547E-07,-87.3289184570313
4.14067554840757E-07,-87.5427856445313
4.19588455571967E-07,-87.7254333496094
4.25109356303178E-07,-87.8790588378906
4.30630257034388E-07,-88.0058822631836
4.36151157765598E-07,-88.1081085205078
4.41672058496808E-07,-88.1879348754883
4.47192959228018E-07,-88.2475891113281
4.52713859959228E-07,-88.2892684936523
4.58234760690438E-07,-88.3135223388672
4.63755661421648E-07,-88.3071823120117
4.69276562152858E-07,-88.2694244384766
4.74797462884068E-07,-88.2033309936523
4.80318363615278E-07,-88.1119689941406
4.85839264346489E-07,-87.9984359741211
4.91360165077699E-07,-87.8658065795898
4.96881065808909E-07,-87.7171630859375
5.02401966540119E-07,-87.5555801391602
5.07922867271329E-07,-87.3841552734375
5.13443768002539E-07,-87.2059555053711
5.18964668733749E-07,-87.0240707397461
5.24485569464959E-07,-86.8399353027344
5.30006470196169E-07,-86.6342620849609
5.3552737092738E-07,-86.4044342041016
5.4104827165859E-07,-86.1553497314453
5.465691723898E-07,-85.8918991088867
5.5209007312101E-07,-85.6189804077148
5.5761097385222E-07,-85.3414840698242
5.6313187458343E-07,-85.0643005371094
5.6865277531464E-07,-84.7923278808594
5.7417367604585E-07,-84.5304641723633
5.7969457677706E-07,-84.2835922241211
5.8521547750827E-07,-84.0566101074219
5.90736378239481E-07,-83.8529205322266
5.96257278970691E-07,-83.6441268920898
6.01778179701901E-07,-83.42333984375
6.07299080433111E-07,-83.1980361938477
6.12819981164321E-07,-82.9756774902344
6.18340881895531E-07,-82.7637481689453
6.23861782626741E-07,-82.5697174072266
6.29382683357951E-07,-82.4010543823242
6.34903584089161E-07,-82.2652359008789
6.40424484820371E-07,-82.1697311401367
6.45945385551581E-07,-82.1220169067383
6.51466286282792E-07,-82.1295623779297
6.56987187014002E-07,-82.199821472168
6.62508087745212E-07,-82.3357849121094
6.68028988476422E-07,-82.5313034057617
6.73549889207632E-07,-82.7791213989258
6.79070789938842E-07,-83.0719985961914
6.84591690670052E-07,-83.4026870727539
6.90112591401262E-07,-83.7639389038086
6.95633492132472E-07,-84.1485061645508
7.01154392863682E-07,-84.5491485595703
7.06675293594893E-07,-84.9586181640625
7.12196194326103E-07,-85.3696746826172
7.17717095057313E-07,-85.7750549316406
7.23237995788523E-07,-86.1678085327148
7.28758896519733E-07,-86.5777359008789
7.34279797250943E-07,-87.0225524902344
7.39800697982153E-07,-87.4936599731445
7.45321598713363E-07,-87.9824676513672
7.50842499444573E-07,-88.4803695678711
7.56363400175783E-07,-88.9787673950195
7.61884300906994E-07,-89.4690704345703
7.67405201638204E-07,-89.9426803588867
7.72926102369414E-07,-90.390983581543
7.78447003100624E-07,-90.8053970336914
7.83967903831834E-07,-91.1773147583008
7.89488804563044E-07,-91.4981536865234
7.95009705294254E-07,-91.8048400878906
8.00530606025464E-07,-92.1276016235352
8.06051506756674E-07,-92.4528121948242
8.11572407487884E-07,-92.7668228149414
8.17093308219094E-07,-93.0559997558594
8.22614208950305E-07,-93.3067092895508
8.28135109681515E-07,-93.5053100585938
8.33656010412725E-07,-93.6381683349609
8.39176911143935E-07,-93.6916427612305
8.44697811875145E-07,-93.652099609375
8.50218712606355E-07,-93.5058975219727
8.55739613337565E-07,-93.2394104003906
8.61260514068775E-07,-92.8180236816406
8.66781414799985E-07,-92.2286682128906
8.72302315531195E-07,-91.4998779296875
8.77823216262406E-07,-90.6602935791016
8.83344116993616E-07,-89.7385635375977
8.88865017724826E-07,-88.763313293457
8.94385918456036E-07,-87.7631988525391
8.99906819187246E-07,-86.7668533325195
9.05427719918456E-07,-85.8029174804688
9.10948620649666E-07,-84.9000244140625
9.16469521380876E-07,-84.0868301391602
9.21990422112086E-07,-83.3919677734375
9.27511322843296E-07,-82.7970657348633
9.33032223574507E-07,-82.2375717163086
9.38553124305717E-07,-81.7128295898438
9.44074025036927E-07,-81.2231674194336
9.49594925768137E-07,-80.7689208984375
9.55115826499347E-07,-80.3504333496094
9.60636727230557E-07,-79.9680404663086
9.66157627961767E-07,-79.6220779418945
9.71678528692977E-07,-79.3128814697266
9.77199429424187E-07,-79.0407867431641
9.82720330155397E-07,-78.8061370849609
9.88241230886608E-07,-78.609260559082
9.93762131617818E-07,-78.4524002075195
9.99283032349028E-07,-78.3386840820313
1.00480393308024E-06,-78.2662506103516
1.01032483381145E-06,-78.2331085205078
1.01584573454266E-06,-78.2372589111328
1.02136663527387E-06,-78.2767028808594
1.02688753600508E-06,-78.3494491577148
1.03240843673629E-06,-78.453498840332
1.0379293374675E-06,-78.5868453979492
1.04345023819871E-06,-78.7475051879883
1.04897113892992E-06,-78.9334716796875
1.05449203966113E-06,-79.1427536010742
1.06001294039234E-06,-79.3842468261719
1.06553384112355E-06,-79.6823501586914
1.07105474185476E-06,-80.0299072265625
1.07657564258597E-06,-80.4179534912109
1.08209654331718E-06,-80.8375473022461
1.08761744404839E-06,-81.2797470092773
1.0931383447796E-06,-81.7355804443359
1.09865924551081E-06,-82.1961212158203
1.10418014624202E-06,-82.6524047851563
1.10970104697323E-06,-83.0954818725586
1.11522194770444E-06,-83.5164031982422
1.12074284843565E-06,-83.9062194824219
1.12626374916686E-06,-84.2605590820313
1.13178464989807E-06,-84.5925903320313
1.13730555062928E-06,-84.9075698852539
1.14282645136049E-06,-85.2096099853516
1.1483473520917E-06,-85.5028457641602
1.15386825282291E-06,-85.7913665771484
1.15938915355412E-06,-86.0793151855469
1.16491005428533E-06,-86.3707885742188
1.17043095501654E-06,-86.6699066162109
1.17595185574775E-06,-86.9807891845703
1.18147275647896E-06,-87.3075561523438
1.18699365721017E-06,-87.6543121337891
1.19251455794138E-06,-88.035026550293
1.19803545867259E-06,-88.4895858764648
1.2035563594038E-06,-89.0040054321289
1.20907726013501E-06,-89.557731628418
1.21459816086622E-06,-90.1302261352539
1.22011906159743E-06,-90.7009353637695
1.22563996232864E-06,-91.2493057250977
1.23116086305985E-06,-91.7548065185547
1.23668176379106E-06,-92.1968688964844
1.24220266452227E-06,-92.5549621582031
1.24772356525348E-06,-92.8085250854492
1.25324446598469E-06,-92.9370193481445
1.2587653667159E-06,-92.9229354858398
1.26428626744711E-06,-92.7780990600586
1.26980716817832E-06,-92.5199661254883
1.27532806890953E-06,-92.1642837524414
1.28084896964074E-06,-91.726806640625
1.28636987037195E-06,-91.2232818603516
1.29189077110316E-06,-90.6694564819336
1.29741167183437E-06,-90.0810699462891
1.30293257256558E-06,-89.4738845825195
1.30845347329679E-06,-88.8636474609375
1.313974374028E-06,-88.2660903930664
1.31949527475921E-06,-87.6969833374023
1.32501617549042E-06,-87.162971496582
1.33053707622163E-06,-86.5995941162109
1.33605797695284E-06,-85.9993896484375
1.34157887768405E-06,-85.3726425170898
1.34709977841526E-06,-84.7296371459961
1.35262067914647E-06,-84.0806427001953
1.35814157987768E-06,-83.4359588623047
1.36366248060889E-06,-82.8058547973633
1.3691833813401E-06,-82.2006072998047
1.37470428207131E-06,-81.6305160522461
1.38022518280252E-06,-81.105842590332
1.38574608353373E-06,-80.6368865966797
1.39126698426494E-06,-80.2315902709961
1.39678788499615E-06,-79.8678741455078
1.40230878572736E-06,-79.5371627807617
1.40782968645858E-06,-79.2388458251953
1.41335058718979E-06,-78.9723358154297
1.418871487921E-06,-78.7370300292969
1.42439238865221E-06,-78.5323333740234
1.42991328938342E-06,-78.3576507568359
1.43543419011463E-06,-78.2123870849609
1.44095509084584E-06,-78.0959396362305
1.44647599157705E-06,-78.0077056884766
1.45199689230826E-06,-77.9471054077148
1.45751779303947E-06,-77.9149703979492
1.46303869377068E-06,-77.9369506835938
1.46855959450189E-06,-78.0152053833008
1.4740804952331E-06,-78.1398468017578
1.47960139596431E-06,-78.3010025024414
1.48512229669552E-06,-78.4887924194336
1.49064319742673E-06,-78.6933212280273
1.49616409815794E-06,-78.9047241210938
1.50168499888915E-06,-79.1131134033203
1.50720589962036E-06,-79.3086090087891
1.51272680035157E-06,-79.4813232421875
1.51824770108278E-06,-79.6213912963867
1.52376860181399E-06,-79.7200164794922
1.5292895025452E-06,-79.8085403442383
1.53481040327641E-06,-79.9013977050781
1.54033130400762E-06,-79.9932479858398
1.54585220473883E-06,-80.0787658691406
1.55137310547004E-06,-80.1526336669922
1.55689400620125E-06,-80.2095336914063
1.56241490693246E-06,-80.2441253662109
1.56793580766367E-06,-80.2510986328125
1.57345670839488E-06,-80.2251205444336
1.57897760912609E-06,-80.1608657836914
1.5844985098573E-06,-80.0530242919922
1.59001941058851E-06,-79.8961791992188
1.59554031131972E-06,-79.6810302734375
1.60106121205093E-06,-79.4095916748047
1.60658211278214E-06,-79.0901412963867
1.61210301351335E-06,-78.7309341430664
1.61762391424456E-06,-78.3402481079102
1.62314481497577E-06,-77.9263381958008
1.62866571570698E-06,-77.4974822998047
1.63418661643819E-06,-77.0619506835938
1.6397075171694E-06,-76.6279907226563
1.64522841790061E-06,-76.2038879394531
1.65074931863182E-06,-75.7978973388672
1.65627021936303E-06,-75.4182586669922
1.66179112009424E-06,-75.046501159668
1.66731202082545E-06,-74.6646728515625
1.67283292155666E-06,-74.2765045166016
1.67835382228787E-06,-73.8857192993164
1.68387472301908E-06,-73.4960479736328
1.68939562375029E-06,-73.1112060546875
1.6949165244815E-06,-72.7349319458008
1.70043742521271E-06,-72.3709411621094
1.70595832594392E-06,-72.0229721069336
1.71147922667513E-06,-71.6947479248047
1.71700012740634E-06,-71.3899841308594
1.72252102813755E-06,-71.1124267578125
1.72804192886876E-06,-70.8569488525391
1.73356282959997E-06,-70.6151580810547
1.73908373033118E-06,-70.3878173828125
1.74460463106239E-06,-70.1757125854492
1.7501255317936E-06,-69.979621887207
1.75564643252481E-06,-69.8003311157227
1.76116733325602E-06,-69.6386108398438
1.76668823398723E-06,-69.4952392578125
1.77220913471844E-06,-69.3710098266602
1.77773003544965E-06,-69.2666854858398
1.78325093618086E-06,-69.1830596923828
1.78877183691207E-06,-69.1209106445313
1.79429273764328E-06,-69.0795516967773
1.79981363837449E-06,-69.0571212768555
1.8053345391057E-06,-69.0536956787109
1.81085543983691E-06,-69.0693664550781
1.81637634056812E-06,-69.1042251586914
1.82189724129933E-06,-69.1583709716797
1.82741814203054E-06,-69.2318954467773
1.83293904276175E-06,-69.3248825073242
1.83845994349296E-06,-69.4374465942383
1.84398084422417E-06,-69.5696640014648
1.84950174495538E-06,-69.7216339111328
1.85502264568659E-06,-69.8934555053711
1.8605435464178E-06,-70.0844116210938
1.86606444714901E-06,-70.2932586669922
1.87158534788022E-06,-70.5204849243164
1.87710624861143E-06,-70.7666397094727
1.88262714934264E-06,-71.0322647094727
1.88814805007385E-06,-71.3178863525391
1.89366895080506E-06,-71.6240615844727
1.89918985153627E-06,-71.9513244628906
1.90471075226748E-06,-72.3002090454102
1.91023165299869E-06,-72.671272277832
1.9157525537299E-06,-73.0650405883789
1.92127345446111E-06,-73.482063293457
1.92679435519232E-06,-73.9349975585938
1.93231525592353E-06,-74.4489288330078
1.93783615665474E-06,-75.0131301879883
1.94335705738595E-06,-75.6151351928711
1.94887795811716E-06,-76.2425079345703
1.95439885884837E-06,-76.8827896118164
1.95991975957958E-06,-77.5235214233398
1.9654406603108E-06,-78.1522674560547
1.970961561042E-06,-78.7565689086914
1.97648246177322E-06,-79.3239669799805
1.98200336250443E-06,-79.8420181274414
1.98752426323564E-06,-80.2982711791992
1.99304516396685E-06,-80.691291809082
1.99856606469806E-06,-81.0512161254883
2.00408696542927E-06,-81.3813171386719
2.00960786616048E-06,-81.6822204589844
2.01512876689169E-06,-81.9545364379883
2.0206496676229E-06,-82.1988830566406
2.02617056835411E-06,-82.4158782958984
2.03169146908532E-06,-82.6061325073242
2.03721236981653E-06,-82.7702713012695
2.04273327054774E-06,-82.9088973999023
2.04825417127895E-06,-83.0226364135742
2.05377507201016E-06,-83.1121063232422
2.05929597274137E-06,-83.1720275878906
2.06481687347258E-06,-83.1806488037109
2.07033777420379E-06,-83.1431045532227
2.075858674935E-06,-83.0676956176758
2.08137957566621E-06,-82.9627532958984
2.08690047639742E-06,-82.8365859985352
2.09242137712863E-06,-82.6974945068359
2.09794227785984E-06,-82.5538177490234
2.10346317859105E-06,-82.4138488769531
2.10898407932226E-06,-82.2859115600586
2.11450498005347E-06,-82.1783218383789
2.12002588078468E-06,-82.0993881225586
2.12554678151589E-06,-82.0534210205078
2.1310676822471E-06,-82.0220565795898
2.13658858297831E-06,-82.0009078979492
2.14210948370952E-06,-81.9889297485352
2.14763038444073E-06,-81.9850692749023
2.15315128517194E-06,-81.9882965087891
2.15867218590315E-06,-81.9975509643555
2.16419308663436E-06,-82.0117950439453
2.16971398736557E-06,-82.0299835205078
2.17523488809678E-06,-82.0510711669922
2.18075578882799E-06,-82.0740051269531
2.1862766895592E-06,-82.0977478027344
2.19179759029041E-06,-82.1222305297852
2.19731849102162E-06,-82.1540222167969
2.20283939175283E-06,-82.193244934082
2.20836029248404E-06,-82.2383346557617
2.21388119321525E-06,-82.287727355957
2.21940209394646E-06,-82.3398590087891
2.22492299467767E-06,-82.3931655883789
2.23044389540888E-06,-82.4460678100586
2.23596479614009E-06,-82.4970092773438
2.2414856968713E-06,-82.5444259643555
2.24700659760251E-06,-82.5867385864258
2.25252749833372E-06,-82.6223983764648
2.25804839906493E-06,-82.6494598388672
2.26356929979614E-06,-82.6636505126953
2.26909020052735E-06,-82.6665954589844
2.27461110125856E-06,-82.6614227294922
2.28013200198977E-06,-82.651237487793
2.28565290272098E-06,-82.6391677856445
2.29117380345219E-06,-82.6283264160156
2.2966947041834E-06,-82.6218338012695
2.30221560491461E-06,-82.622802734375
2.30773650564582E-06,-82.6343536376953
2.31325740637703E-06,-82.6596069335938
2.31877830710824E-06,-82.7016754150391
2.32429920783945E-06,-82.7632675170898
2.32982010857066E-06,-82.839241027832
2.33534100930187E-06,-82.926628112793
2.34086191003308E-06,-83.024772644043
2.34638281076429E-06,-83.1330261230469
2.3519037114955E-06,-83.250732421875
2.35742461222671E-06,-83.3772354125977
2.36294551295792E-06,-83.5118865966797
2.36846641368913E-06,-83.6540374755859
2.37398731442034E-06,-83.8030319213867
2.37950821515155E-06,-83.9582214355469
2.38502911588276E-06,-84.1189422607422
2.39055001661397E-06,-84.2851181030273
2.39607091734518E-06,-84.4722900390625
2.40159181807639E-06,-84.6832962036133
2.4071127188076E-06,-84.9121627807617
2.41263361953881E-06,-85.1529083251953
2.41815452027002E-06,-85.3995590209961
2.42367542100123E-06,-85.6461410522461
2.42919632173244E-06,-85.8866729736328
2.43471722246365E-06,-86.1151809692383
2.44023812319486E-06,-86.3256912231445
2.44575902392607E-06,-86.5122222900391
2.45127992465728E-06,-86.6688003540039
2.45680082538849E-06,-86.7891616821289
2.4623217261197E-06,-86.8512649536133
2.46784262685091E-06,-86.8544845581055
2.47336352758212E-06,-86.8132858276367
2.47888442831333E-06,-86.7421112060547
2.48440532904454E-06,-86.6554260253906
2.48992622977575E-06,-86.5676803588867
2.49544713050696E-06,-86.4933242797852
2.50096803123817E-06,-86.4468231201172
2.50648893196938E-06,-86.4426193237305
2.51200983270059E-06,-86.4951782226563
2.5175307334318E-06,-86.6189575195313
2.52305163416301E-06,-86.8284912109375
2.52857253489422E-06,-87.1630859375
2.53409343562543E-06,-87.6263046264648
2.53961433635665E-06,-88.1886749267578
2.54513523708785E-06,-88.8207168579102
2.55065613781907E-06,-89.4929580688477
2.55617703855028E-06,-90.1759185791016
2.56169793928149E-06,-90.8401107788086
2.5672188400127E-06,-91.4560699462891
2.57273974074391E-06,-91.9943084716797
2.57826064147512E-06,-92.4253540039063
2.58378154220633E-06,-92.7197189331055
2.58930244293754E-06,-92.8479385375977
2.59482334366875E-06,-92.8051452636719
2.60034424439996E-06,-92.6213302612305
2.60586514513117E-06,-92.3173522949219
2.61138604586238E-06,-91.9140625
2.61690694659359E-06,-91.4323196411133
2.6224278473248E-06,-90.8929824829102
2.62794874805601E-06,-90.3169174194336
2.63346964878722E-06,-89.724967956543
2.63899054951843E-06,-89.1379928588867
2.64451145024964E-06,-88.5768585205078
2.65003235098085E-06,-88.0624160766602
2.65555325171206E-06,-87.6155242919922
2.66107415244327E-06,-87.2115249633789
2.66659505317448E-06,-86.7970581054688
2.67211595390569E-06,-86.3772201538086
2.6776368546369E-06,-85.9575653076172
2.68315775536811E-06,-85.5436630249023
2.68867865609932E-06,-85.1410903930664
2.69419955683053E-06,-84.7554016113281
2.69972045756174E-06,-84.3921661376953
2.70524135829295E-06,-84.0569534301758
2.71076225902416E-06,-83.7553253173828
2.71628315975537E-06,-83.4928436279297
2.72180406048658E-06,-83.2750854492188
