Trace
Swept SA
A.19.55,N9020B
508 AB2 B25 B40 B85 DP2 DP4 EP2 FS1 FS2 MPB RTL ,01
Segment,0
Number of Points,81920
Sweep Time,0.000452266667
Start Frequency,2400000000
Stop Frequency,2400000000
Average Count,0
Average Type,LogPower(Video)
RBW,3000000
RBW Filter,Gaussian
RBW Filter BW,3dB
VBW,3000000
Sweep Type,Swept
X Axis Scale,Lin
PreAmp State,Off
PreAmp Band,Low
Trigger Source,Ext1
Trigger Level,1.2
Trigger Slope,Positive
Trigger Delay,1E-06
Phase Noise Optimization,Fast
Swept If Gain,Low
FFT If Gain,Autorange
RF Coupling,AC
FFT Width,411900
Ext Ref,10000000
Input,RF
RF Calibrator,Off
Attenuation,6
Ref Level Offset,0
External Gain,0
Trace Type,Clearwrite
Detector,Normal
Trace Math,Off
Trace Math Oper1,Trace5
Trace Math Oper2,Trace6
Trace Math Offset,0
Normalize,Off
Trace Name,Trace1
X Axis Units,s
Y Axis Units,dBm
DATA
0,-85.720085144043
5.5209007312101E-09,-86.3418273925781
1.10418014624202E-08,-87.0077209472656
1.65627021936303E-08,-87.7015380859375
2.20836029248404E-08,-88.4070587158203
2.76045036560505E-08,-89.1080627441406
3.31254043872606E-08,-89.788330078125
3.86463051184707E-08,-90.4316329956055
4.41672058496808E-08,-91.0217590332031
4.96881065808909E-08,-91.54248046875
5.5209007312101E-08,-91.9775772094727
6.07299080433111E-08,-92.3291091918945
6.62508087745212E-08,-92.6248779296875
7.17717095057313E-08,-92.8705062866211
7.72926102369414E-08,-93.0711059570313
8.28135109681515E-08,-93.231803894043
8.83344116993616E-08,-93.3577194213867
9.38553124305717E-08,-93.453971862793
9.93762131617818E-08,-93.5256958007813
1.04897113892992E-07,-93.577995300293
1.10418014624202E-07,-93.6159973144531
1.15938915355412E-07,-93.6448287963867
1.21459816086622E-07,-93.6696090698242
1.26980716817832E-07,-93.685302734375
1.32501617549042E-07,-93.6731033325195
1.38022518280252E-07,-93.6353454589844
1.43543419011463E-07,-93.5752105712891
1.49064319742673E-07,-93.4958953857422
1.54585220473883E-07,-93.4005737304688
1.60106121205093E-07,-93.2924346923828
1.65627021936303E-07,-93.1746673583984
1.71147922667513E-07,-93.0504531860352
1.76668823398723E-07,-92.922981262207
1.82189724129933E-07,-92.7954254150391
1.87710624861143E-07,-92.6709899902344
1.93231525592353E-07,-92.5475158691406
1.98752426323564E-07,-92.4121704101563
2.04273327054774E-07,-92.2661590576172
2.09794227785984E-07,-92.1116790771484
2.15315128517194E-07,-91.9509124755859
2.20836029248404E-07,-91.7860565185547
2.26356929979614E-07,-91.6193084716797
2.31877830710824E-07,-91.4528503417969
2.37398731442034E-07,-91.2888793945313
2.42919632173244E-07,-91.1295776367188
2.48440532904454E-07,-90.9771423339844
2.53961433635664E-07,-90.8337707519531
2.59482334366875E-07,-90.6934051513672
2.65003235098085E-07,-90.5298233032227
2.70524135829295E-07,-90.3485717773438
2.76045036560505E-07,-90.1583633422852
2.81565937291715E-07,-89.9678955078125
2.87086838022925E-07,-89.785888671875
2.92607738754135E-07,-89.6210632324219
2.98128639485345E-07,-89.4821166992188
3.03649540216555E-07,-89.3777694702148
3.09170440947765E-07,-89.3167419433594
3.14691341678976E-07,-89.307731628418
3.20212242410186E-07,-89.3594589233398
3.25733143141396E-07,-89.4912948608398
3.31254043872606E-07,-89.7505264282227
3.36774944603816E-07,-90.1176452636719
3.42295845335026E-07,-90.5645751953125
3.47816746066236E-07,-91.0632476806641
3.53337646797446E-07,-91.5855941772461
3.58858547528656E-07,-92.1035461425781
3.64379448259866E-07,-92.5890197753906
3.69900348991077E-07,-93.0139541625977
3.75421249722287E-07,-93.3502807617188
3.80942150453497E-07,-93.5699234008789
3.86463051184707E-07,-93.6448135375977
3.91983951915917E-07,-93.5477600097656
3.97504852647127E-07,-93.2770004272461
4.03025753378337E-07,-92.8593139648438
4.08546654109547E-07,-92.3230056762695
4.14067554840757E-07,-91.6963653564453
4.19588455571967E-07,-91.007698059082
4.25109356303178E-07,-90.2853088378906
4.30630257034388E-07,-89.5574798583984
4.36151157765598E-07,-88.8525238037109
4.41672058496808E-07,-88.1987380981445
4.47192959228018E-07,-87.6244125366211
4.52713859959228E-07,-87.1578521728516
4.58234760690438E-07,-86.8208389282227
4.63755661421648E-07,-86.5681457519531
4.69276562152858E-07,-86.3780288696289
4.74797462884068E-07,-86.2416000366211
4.80318363615278E-07,-86.1500015258789
4.85839264346489E-07,-86.0943450927734
4.91360165077699E-07,-86.0657730102539
4.96881065808909E-07,-86.0553970336914
5.02401966540119E-07,-86.0543594360352
5.07922867271329E-07,-86.0537796020508
5.13443768002539E-07,-86.0447845458984
5.18964668733749E-07,-86.0185089111328
5.24485569464959E-07,-85.9691009521484
5.30006470196169E-07,-85.9309616088867
5.3552737092738E-07,-85.911750793457
5.4104827165859E-07,-85.9057846069336
5.465691723898E-07,-85.907356262207
5.5209007312101E-07,-85.9107666015625
5.5761097385222E-07,-85.9103317260742
5.6313187458343E-07,-85.9003448486328
5.6865277531464E-07,-85.875114440918
5.7417367604585E-07,-85.8289489746094
5.7969457677706E-07,-85.7561416625977
5.8521547750827E-07,-85.651008605957
5.90736378239481E-07,-85.5077590942383
5.96257278970691E-07,-85.3219909667969
6.01778179701901E-07,-85.098388671875
6.07299080433111E-07,-84.8435745239258
6.12819981164321E-07,-84.5641937255859
6.18340881895531E-07,-84.2668685913086
6.23861782626741E-07,-83.9582366943359
6.29382683357951E-07,-83.6449356079102
6.34903584089161E-07,-83.3335952758789
6.40424484820371E-07,-83.0308532714844
6.45945385551581E-07,-82.7433395385742
6.51466286282792E-07,-82.4776916503906
6.56987187014002E-07,-82.2401580810547
6.62508087745212E-07,-82.0185012817383
6.68028988476422E-07,-81.8041763305664
6.73549889207632E-07,-81.5971603393555
6.79070789938842E-07,-81.3974533081055
6.84591690670052E-07,-81.2050476074219
6.90112591401262E-07,-81.0199356079102
6.95633492132472E-07,-80.8421173095703
7.01154392863682E-07,-80.6715850830078
7.06675293594893E-07,-80.5083236694336
7.12196194326103E-07,-80.3523330688477
7.17717095057313E-07,-80.20361328125
7.23237995788523E-07,-80.062141418457
7.28758896519733E-07,-79.9274826049805
7.34279797250943E-07,-79.7994689941406
7.39800697982153E-07,-79.6783218383789
7.45321598713363E-07,-79.5642547607422
7.50842499444573E-07,-79.4574813842773
7.56363400175783E-07,-79.3582153320313
7.61884300906994E-07,-79.2666625976563
7.67405201638204E-07,-79.1830520629883
7.72926102369414E-07,-79.1075897216797
7.78447003100624E-07,-79.0404891967773
7.83967903831834E-07,-78.9819641113281
7.89488804563044E-07,-78.9322357177734
7.95009705294254E-07,-78.8886642456055
8.00530606025464E-07,-78.8495254516602
8.06051506756674E-07,-78.8160400390625
8.11572407487884E-07,-78.7894592285156
8.17093308219094E-07,-78.7710113525391
8.22614208950305E-07,-78.7619247436523
8.28135109681515E-07,-78.7634429931641
8.33656010412725E-07,-78.7767944335938
8.39176911143935E-07,-78.80322265625
8.44697811875145E-07,-78.8439483642578
8.50218712606355E-07,-78.9002151489258
8.55739613337565E-07,-78.973258972168
8.61260514068775E-07,-79.0604476928711
8.66781414799985E-07,-79.1579818725586
8.72302315531195E-07,-79.2667541503906
8.77823216262406E-07,-79.3876647949219
8.83344116993616E-07,-79.521614074707
8.88865017724826E-07,-79.6694946289063
8.94385918456036E-07,-79.8322067260742
8.99906819187246E-07,-80.0106582641602
9.05427719918456E-07,-80.2057418823242
9.10948620649666E-07,-80.4183502197266
9.16469521380876E-07,-80.6493911743164
9.21990422112086E-07,-80.8997650146484
9.27511322843296E-07,-81.1762008666992
9.33032223574507E-07,-81.4855880737305
9.38553124305717E-07,-81.8228912353516
9.44074025036927E-07,-82.1829223632813
9.49594925768137E-07,-82.5605010986328
9.55115826499347E-07,-82.9504318237305
9.60636727230557E-07,-83.3475341796875
9.66157627961767E-07,-83.7466278076172
9.71678528692977E-07,-84.1425094604492
9.77199429424187E-07,-84.5300140380859
9.82720330155397E-07,-84.9039306640625
9.88241230886608E-07,-85.2590942382813
9.93762131617818E-07,-85.6059265136719
9.99283032349028E-07,-85.9711532592773
1.00480393308024E-06,-86.3485412597656
1.01032483381145E-06,-86.7307968139648
1.01584573454266E-06,-87.1106033325195
1.02136663527387E-06,-87.4806594848633
1.02688753600508E-06,-87.8336486816406
1.03240843673629E-06,-88.1622619628906
1.0379293374675E-06,-88.4591903686523
1.04345023819871E-06,-88.7171325683594
1.04897113892992E-06,-88.9287719726563
1.05449203966113E-06,-89.086799621582
1.06001294039234E-06,-89.1856231689453
1.06553384112355E-06,-89.2294006347656
1.07105474185476E-06,-89.2246704101563
1.07657564258597E-06,-89.1779098510742
1.08209654331718E-06,-89.095588684082
1.08761744404839E-06,-88.9841766357422
1.0931383447796E-06,-88.8501434326172
1.09865924551081E-06,-88.6999588012695
1.10418014624202E-06,-88.5400924682617
1.10970104697323E-06,-88.3770141601563
1.11522194770444E-06,-88.2172012329102
1.12074284843565E-06,-88.0671081542969
1.12626374916686E-06,-87.9268493652344
1.13178464989807E-06,-87.77783203125
1.13730555062928E-06,-87.6191024780273
1.14282645136049E-06,-87.4515762329102
1.1483473520917E-06,-87.2761688232422
1.15386825282291E-06,-87.0938034057617
1.15938915355412E-06,-86.905403137207
1.16491005428533E-06,-86.7118759155273
1.17043095501654E-06,-86.5141448974609
1.17595185574775E-06,-86.313117980957
1.18147275647896E-06,-86.109733581543
1.18699365721017E-06,-85.9048843383789
1.19251455794138E-06,-85.6975860595703
1.19803545867259E-06,-85.4802780151367
1.2035563594038E-06,-85.2539138793945
1.20907726013501E-06,-85.020622253418
1.21459816086622E-06,-84.7825241088867
1.22011906159743E-06,-84.5417404174805
1.22563996232864E-06,-84.300407409668
1.23116086305985E-06,-84.0606307983398
1.23668176379106E-06,-83.8245544433594
1.24220266452227E-06,-83.5942840576172
1.24772356525348E-06,-83.3719482421875
1.25324446598469E-06,-83.1596755981445
1.2587653667159E-06,-82.9568939208984
1.26428626744711E-06,-82.7494735717773
1.26980716817832E-06,-82.5379257202148
1.27532806890953E-06,-82.3257522583008
1.28084896964074E-06,-82.1164321899414
1.28636987037195E-06,-81.9134521484375
1.29189077110316E-06,-81.7202987670898
1.29741167183437E-06,-81.5404586791992
1.30293257256558E-06,-81.3774108886719
1.30845347329679E-06,-81.2346572875977
1.313974374028E-06,-81.1156616210938
1.31949527475921E-06,-81.0239334106445
1.32501617549042E-06,-80.9609985351563
1.33053707622163E-06,-80.9131774902344
1.33605797695284E-06,-80.8787536621094
1.34157887768405E-06,-80.8597793579102
1.34709977841526E-06,-80.8582992553711
1.35262067914647E-06,-80.8763732910156
1.35814157987768E-06,-80.9160385131836
1.36366248060889E-06,-80.979362487793
1.3691833813401E-06,-81.0683898925781
1.37470428207131E-06,-81.1851654052734
1.38022518280252E-06,-81.3317413330078
1.38574608353373E-06,-81.5101776123047
1.39126698426494E-06,-81.7218475341797
1.39678788499615E-06,-81.9598922729492
1.40230878572736E-06,-82.2226867675781
1.40782968645858E-06,-82.5110626220703
1.41335058718979E-06,-82.8258743286133
1.418871487921E-06,-83.1679458618164
1.42439238865221E-06,-83.5381393432617
1.42991328938342E-06,-83.9372787475586
1.43543419011463E-06,-84.3662109375
1.44095509084584E-06,-84.8257827758789
1.44647599157705E-06,-85.3168334960938
1.45199689230826E-06,-85.8401947021484
1.45751779303947E-06,-86.4015350341797
1.46303869377068E-06,-87.0876159667969
1.46855959450189E-06,-87.9031982421875
1.4740804952331E-06,-88.812385559082
1.47960139596431E-06,-89.7792816162109
1.48512229669552E-06,-90.7679901123047
1.49064319742673E-06,-91.7426147460938
1.49616409815794E-06,-92.6672668457031
1.50168499888915E-06,-93.5060424804688
1.50720589962036E-06,-94.2230606079102
1.51272680035157E-06,-94.7824249267578
1.51824770108278E-06,-95.1482315063477
1.52376860181399E-06,-95.2843933105469
1.5292895025452E-06,-95.1657028198242
1.53481040327641E-06,-94.8200454711914
1.54033130400762E-06,-94.2872161865234
1.54585220473883E-06,-93.6070175170898
1.55137310547004E-06,-92.8192291259766
1.55689400620125E-06,-91.9636611938477
1.56241490693246E-06,-91.0801010131836
1.56793580766367E-06,-90.2083435058594
1.57345670839488E-06,-89.38818359375
1.57897760912609E-06,-88.6594161987305
1.5844985098573E-06,-88.0618362426758
1.59001941058851E-06,-87.6343994140625
1.59554031131972E-06,-87.3283309936523
1.60106121205093E-06,-87.0906372070313
1.60658211278214E-06,-86.9136505126953
1.61210301351335E-06,-86.7897338867188
1.61762391424456E-06,-86.7112350463867
1.62314481497577E-06,-86.6705017089844
1.62866571570698E-06,-86.6598968505859
1.63418661643819E-06,-86.6717681884766
1.6397075171694E-06,-86.6984634399414
1.64522841790061E-06,-86.7323303222656
1.65074931863182E-06,-86.7657318115234
1.65627021936303E-06,-86.7910690307617
1.66179112009424E-06,-86.8402404785156
1.66731202082545E-06,-86.9374465942383
1.67283292155666E-06,-87.0717468261719
1.67835382228787E-06,-87.2321701049805
1.68387472301908E-06,-87.4077606201172
1.68939562375029E-06,-87.5875701904297
1.6949165244815E-06,-87.760627746582
1.70043742521271E-06,-87.9159774780273
1.70595832594392E-06,-88.0426712036133
1.71147922667513E-06,-88.1297454833984
1.71700012740634E-06,-88.1662368774414
1.72252102813755E-06,-88.1412048339844
1.72804192886876E-06,-88.0247268676758
1.73356282959997E-06,-87.806266784668
1.73908373033118E-06,-87.5097045898438
1.74460463106239E-06,-87.158935546875
1.7501255317936E-06,-86.7778625488281
1.75564643252481E-06,-86.3903884887695
1.76116733325602E-06,-86.0204162597656
1.76668823398723E-06,-85.6918563842773
1.77220913471844E-06,-85.4286117553711
1.77773003544965E-06,-85.2545776367188
1.78325093618086E-06,-85.1936645507813
1.78877183691207E-06,-85.269775390625
1.79429273764328E-06,-85.5207290649414
1.79981363837449E-06,-85.955436706543
1.8053345391057E-06,-86.5370712280273
1.81085543983691E-06,-87.2284469604492
1.81637634056812E-06,-87.9923858642578
1.82189724129933E-06,-88.7917098999023
1.82741814203054E-06,-89.5892181396484
1.83293904276175E-06,-90.3477478027344
1.83845994349296E-06,-91.0301055908203
1.84398084422417E-06,-91.5991134643555
1.84950174495538E-06,-92.0175857543945
1.85502264568659E-06,-92.2483367919922
1.8605435464178E-06,-92.2789916992188
1.86606444714901E-06,-92.1542053222656
1.87158534788022E-06,-91.8974380493164
1.87710624861143E-06,-91.5311431884766
1.88262714934264E-06,-91.0778045654297
1.88814805007385E-06,-90.5598678588867
1.89366895080506E-06,-89.9998168945313
1.89918985153627E-06,-89.4201049804688
1.90471075226748E-06,-88.8432083129883
1.91023165299869E-06,-88.2915878295898
1.9157525537299E-06,-87.787712097168
1.92127345446111E-06,-87.3540420532227
1.92679435519232E-06,-86.9875335693359
1.93231525592353E-06,-86.6337127685547
1.93783615665474E-06,-86.2890930175781
1.94335705738595E-06,-85.9532318115234
1.94887795811716E-06,-85.6256866455078
1.95439885884837E-06,-85.3059997558594
1.95991975957958E-06,-84.9937210083008
1.9654406603108E-06,-84.6884078979492
1.970961561042E-06,-84.3896026611328
1.97648246177322E-06,-84.0968627929688
1.98200336250443E-06,-83.8097381591797
1.98752426323564E-06,-83.5277709960938
1.99304516396685E-06,-83.2500762939453
1.99856606469806E-06,-82.9753952026367
2.00408696542927E-06,-82.7046279907227
2.00960786616048E-06,-82.4388046264648
2.01512876689169E-06,-82.1789779663086
2.0206496676229E-06,-81.9261856079102
2.02617056835411E-06,-81.6814575195313
2.03169146908532E-06,-81.4458465576172
2.03721236981653E-06,-81.2203903198242
2.04273327054774E-06,-81.0061264038086
2.04825417127895E-06,-80.8040924072266
2.05377507201016E-06,-80.6153411865234
2.05929597274137E-06,-80.4391403198242
2.06481687347258E-06,-80.2691040039063
2.07033777420379E-06,-80.1058731079102
2.075858674935E-06,-79.9509887695313
2.08137957566621E-06,-79.8059844970703
2.08690047639742E-06,-79.6724014282227
2.09242137712863E-06,-79.5517730712891
2.09794227785984E-06,-79.4456481933594
2.10346317859105E-06,-79.3555526733398
2.10898407932226E-06,-79.2830429077148
2.11450498005347E-06,-79.2296371459961
2.12002588078468E-06,-79.196891784668
2.12554678151589E-06,-79.1873626708984
2.1310676822471E-06,-79.2065124511719
2.13658858297831E-06,-79.2517623901367
2.14210948370952E-06,-79.3194122314453
2.14763038444073E-06,-79.4057312011719
2.15315128517194E-06,-79.5070037841797
2.15867218590315E-06,-79.6195068359375
2.16419308663436E-06,-79.7395172119141
2.16971398736557E-06,-79.8633270263672
2.17523488809678E-06,-79.9872055053711
2.18075578882799E-06,-80.1074295043945
2.1862766895592E-06,-80.2202911376953
2.19179759029041E-06,-80.3236923217773
2.19731849102162E-06,-80.4279708862305
2.20283939175283E-06,-80.5352630615234
2.20836029248404E-06,-80.6450881958008
2.21388119321525E-06,-80.756965637207
2.21940209394646E-06,-80.8704376220703
2.22492299467767E-06,-80.9850158691406
2.23044389540888E-06,-81.100227355957
2.23596479614009E-06,-81.2156066894531
2.2414856968713E-06,-81.3306732177734
2.24700659760251E-06,-81.4449462890625
2.25252749833372E-06,-81.5579605102539
2.25804839906493E-06,-81.6691589355469
2.26356929979614E-06,-81.7775573730469
2.26909020052735E-06,-81.8836288452148
2.27461110125856E-06,-81.9882049560547
2.28013200198977E-06,-82.0921020507813
2.28565290272098E-06,-82.1961441040039
2.29117380345219E-06,-82.3011474609375
2.2966947041834E-06,-82.4079437255859
2.30221560491461E-06,-82.5173416137695
2.30773650564582E-06,-82.6301651000977
2.31325740637703E-06,-82.7472381591797
2.31877830710824E-06,-82.869384765625
2.32429920783945E-06,-82.9979934692383
2.32982010857066E-06,-83.1424026489258
2.33534100930187E-06,-83.3022384643555
2.34086191003308E-06,-83.4730377197266
2.34638281076429E-06,-83.6503295898438
2.3519037114955E-06,-83.8296432495117
2.35742461222671E-06,-84.0065078735352
2.36294551295792E-06,-84.1764602661133
2.36846641368913E-06,-84.3350296020508
2.37398731442034E-06,-84.4777450561523
2.37950821515155E-06,-84.6001358032227
2.38502911588276E-06,-84.6977386474609
2.39055001661397E-06,-84.7665557861328
2.39607091734518E-06,-84.8176498413086
2.40159181807639E-06,-84.8566360473633
2.4071127188076E-06,-84.8825454711914
2.41263361953881E-06,-84.8944244384766
2.41815452027002E-06,-84.8913116455078
2.42367542100123E-06,-84.8722610473633
2.42919632173244E-06,-84.8363037109375
2.43471722246365E-06,-84.7824859619141
2.44023812319486E-06,-84.709846496582
2.44575902392607E-06,-84.617431640625
2.45127992465728E-06,-84.504280090332
2.45680082538849E-06,-84.3693237304688
2.4623217261197E-06,-84.204475402832
2.46784262685091E-06,-84.0083770751953
2.47336352758212E-06,-83.7853622436523
2.47888442831333E-06,-83.5398025512695
2.48440532904454E-06,-83.2760314941406
2.48992622977575E-06,-82.9984130859375
2.49544713050696E-06,-82.711296081543
2.50096803123817E-06,-82.4190292358398
2.50648893196938E-06,-82.1259613037109
2.51200983270059E-06,-81.8364410400391
2.5175307334318E-06,-81.5548324584961
2.52305163416301E-06,-81.2854232788086
2.52857253489422E-06,-81.0138320922852
2.53409343562543E-06,-80.7291259765625
2.53961433635665E-06,-80.4353256225586
2.54513523708785E-06,-80.1364669799805
2.55065613781907E-06,-79.8365783691406
2.55617703855028E-06,-79.5396957397461
2.56169793928149E-06,-79.2498474121094
2.5672188400127E-06,-78.9710693359375
2.57273974074391E-06,-78.7073822021484
2.57826064147512E-06,-78.4628219604492
2.58378154220633E-06,-78.2414169311523
2.58930244293754E-06,-78.0471954345703
2.59482334366875E-06,-77.8720321655273
2.60034424439996E-06,-77.7055892944336
2.60586514513117E-06,-77.5499496459961
2.61138604586238E-06,-77.4071960449219
2.61690694659359E-06,-77.2794189453125
2.6224278473248E-06,-77.1687088012695
2.62794874805601E-06,-77.0771560668945
2.63346964878722E-06,-77.0068435668945
2.63899054951843E-06,-76.9598693847656
2.64451145024964E-06,-76.9383163452148
2.65003235098085E-06,-76.9442672729492
2.65555325171206E-06,-76.9798202514648
2.66107415244327E-06,-77.0492935180664
2.66659505317448E-06,-77.1543426513672
2.67211595390569E-06,-77.2911148071289
2.6776368546369E-06,-77.4557266235352
2.68315775536811E-06,-77.6442718505859
2.68867865609932E-06,-77.8528747558594
2.69419955683053E-06,-78.07763671875
2.69972045756174E-06,-78.3146667480469
2.70524135829295E-06,-78.5600814819336
2.71076225902416E-06,-78.8099822998047
2.71628315975537E-06,-79.0604858398438
2.72180406048658E-06,-79.3076934814453
