Trace
Swept SA
A.19.55,N9020B
508 AB2 B25 B40 B85 DP2 DP4 EP2 FS1 FS2 MPB RTL ,01
Segment,0
Number of Points,81920
Sweep Time,0.0004096
Start Frequency,2400000000
Stop Frequency,2400000000
Average Count,0
Average Type,LogPower(Video)
RBW,3000000
RBW Filter,Gaussian
RBW Filter BW,3dB
VBW,3000000
Sweep Type,Swept
X Axis Scale,Lin
PreAmp State,Off
PreAmp Band,Low
Trigger Source,Ext1
Trigger Level,1.2
Trigger Slope,Positive
Trigger Delay,1E-06
Phase Noise Optimization,Fast
Swept If Gain,Low
FFT If Gain,Autorange
RF Coupling,AC
FFT Width,411900
Ext Ref,10000000
Input,RF
RF Calibrator,Off
Attenuation,6
Ref Level Offset,0
External Gain,0
Trace Type,Clearwrite
Detector,Normal
Trace Math,Off
Trace Math Oper1,Trace5
Trace Math Oper2,Trace6
Trace Math Offset,0
Normalize,Off
Trace Name,Trace1
X Axis Units,s
Y Axis Units,dBm
DATA
0,-56.8822479248047
5.00006103590132E-09,-57.2418327331543
1.00001220718026E-08,-57.6130104064941
1.50001831077039E-08,-57.9902000427246
2.00002441436053E-08,-58.3678359985352
2.50003051795066E-08,-58.7403450012207
3.00003662154079E-08,-59.1021537780762
3.50004272513092E-08,-59.4476852416992
4.00004882872105E-08,-59.7713737487793
4.50005493231118E-08,-60.0676422119141
5.00006103590132E-08,-60.3309211730957
5.50006713949145E-08,-60.5556335449219
6.00007324308158E-08,-60.7368698120117
6.50007934667171E-08,-60.8802108764648
7.00008545026184E-08,-60.9907684326172
7.50009155385197E-08,-61.0716552734375
8.00009765744211E-08,-61.1259956359863
8.50010376103224E-08,-61.1569061279297
9.00010986462237E-08,-61.1675033569336
9.5001159682125E-08,-61.1609039306641
1.00001220718026E-07,-61.1402282714844
1.05001281753928E-07,-61.1085929870605
1.10001342789829E-07,-61.0691184997559
1.1500140382573E-07,-61.0249176025391
1.20001464861632E-07,-60.9791145324707
1.25001525897533E-07,-60.9348182678223
1.30001586933434E-07,-60.8788909912109
1.35001647969336E-07,-60.798957824707
1.40001709005237E-07,-60.6993103027344
1.45001770041138E-07,-60.5842437744141
1.50001831077039E-07,-60.4580383300781
1.55001892112941E-07,-60.3249893188477
1.60001953148842E-07,-60.1893882751465
1.65002014184743E-07,-60.0555229187012
1.70002075220645E-07,-59.9276847839355
1.75002136256546E-07,-59.8101615905762
1.80002197292447E-07,-59.7072410583496
1.85002258328349E-07,-59.623218536377
1.9000231936425E-07,-59.5623817443848
1.95002380400151E-07,-59.5229835510254
2.00002441436053E-07,-59.4885063171387
2.05002502471954E-07,-59.459171295166
2.10002563507855E-07,-59.4366760253906
2.15002624543757E-07,-59.4227066040039
2.20002685579658E-07,-59.4189491271973
2.25002746615559E-07,-59.4270973205566
2.30002807651461E-07,-59.4488372802734
2.35002868687362E-07,-59.4858589172363
2.40002929723263E-07,-59.539852142334
2.45002990759165E-07,-59.6125030517578
2.50003051795066E-07,-59.7055053710938
2.55003112830967E-07,-59.8205451965332
2.60003173866868E-07,-59.9595985412598
2.6500323490277E-07,-60.126651763916
2.70003295938671E-07,-60.3202362060547
2.75003356974572E-07,-60.5373954772949
2.80003418010474E-07,-60.7751846313477
2.85003479046375E-07,-61.0306434631348
2.90003540082276E-07,-61.3008270263672
2.95003601118178E-07,-61.5827827453613
3.00003662154079E-07,-61.8735580444336
3.0500372318998E-07,-62.1702003479004
3.10003784225882E-07,-62.4697608947754
3.15003845261783E-07,-62.769287109375
3.20003906297684E-07,-63.0658302307129
3.25003967333586E-07,-63.3564338684082
3.30004028369487E-07,-63.6477584838867
3.35004089405388E-07,-63.9475898742676
3.4000415044129E-07,-64.2546844482422
3.45004211477191E-07,-64.5678100585938
3.50004272513092E-07,-64.8857116699219
3.55004333548993E-07,-65.2071533203125
3.60004394584895E-07,-65.530891418457
3.65004455620796E-07,-65.8556823730469
3.70004516656697E-07,-66.180290222168
3.75004577692599E-07,-66.5034561157227
3.800046387285E-07,-66.8239517211914
3.85004699764401E-07,-67.1405334472656
3.90004760800303E-07,-67.4519500732422
3.95004821836204E-07,-67.7613525390625
4.00004882872105E-07,-68.0808258056641
4.05004943908007E-07,-68.4081954956055
4.10005004943908E-07,-68.7401504516602
4.15005065979809E-07,-69.0733795166016
4.20005127015711E-07,-69.4045791625977
4.25005188051612E-07,-69.7304458618164
4.30005249087513E-07,-70.0476684570313
4.35005310123415E-07,-70.3529434204102
4.40005371159316E-07,-70.642951965332
4.45005432195217E-07,-70.9143905639648
4.50005493231119E-07,-71.1639633178711
4.5500555426702E-07,-71.3883514404297
4.60005615302921E-07,-71.5844192504883
4.65005676338822E-07,-71.7528915405273
4.70005737374724E-07,-71.8967819213867
4.75005798410625E-07,-72.0188446044922
4.80005859446526E-07,-72.1218414306641
4.85005920482428E-07,-72.2085418701172
4.90005981518329E-07,-72.2817001342773
4.9500604255423E-07,-72.3440780639648
5.00006103590132E-07,-72.3984451293945
5.05006164626033E-07,-72.4475631713867
5.10006225661934E-07,-72.4941940307617
5.15006286697836E-07,-72.5410919189453
5.20006347733737E-07,-72.5910339355469
5.25006408769638E-07,-72.6467666625977
5.3000646980554E-07,-72.6791839599609
5.35006530841441E-07,-72.6655044555664
5.40006591877342E-07,-72.618049621582
5.45006652913243E-07,-72.5491027832031
5.50006713949145E-07,-72.4709701538086
5.55006774985046E-07,-72.3959579467773
5.60006836020948E-07,-72.3363647460938
5.65006897056849E-07,-72.3044967651367
5.7000695809275E-07,-72.3126449584961
5.75007019128651E-07,-72.3731155395508
5.80007080164553E-07,-72.4982070922852
5.85007141200454E-07,-72.7002258300781
5.90007202236355E-07,-72.9914779663086
5.95007263272257E-07,-73.4038925170898
6.00007324308158E-07,-73.9919357299805
6.05007385344059E-07,-74.7268524169922
6.10007446379961E-07,-75.574104309082
6.15007507415862E-07,-76.4991760253906
6.20007568451763E-07,-77.467529296875
6.25007629487665E-07,-78.4446334838867
6.30007690523566E-07,-79.3959655761719
6.35007751559467E-07,-80.2869873046875
6.40007812595369E-07,-81.0831680297852
6.4500787363127E-07,-81.7499771118164
6.50007934667171E-07,-82.2528991699219
6.55007995703072E-07,-82.5573806762695
6.60008056738974E-07,-82.6303253173828
6.65008117774875E-07,-82.4748001098633
6.70008178810776E-07,-82.1220779418945
6.75008239846678E-07,-81.6025924682617
6.80008300882579E-07,-80.94677734375
6.8500836191848E-07,-80.1850738525391
6.90008422954382E-07,-79.3479080200195
6.95008483990283E-07,-78.4657211303711
7.00008545026184E-07,-77.5689392089844
7.05008606062086E-07,-76.6880111694336
7.10008667097987E-07,-75.8533630371094
7.15008728133888E-07,-75.0954284667969
7.2000878916979E-07,-74.4446411132813
7.25008850205691E-07,-73.9314346313477
7.30008911241592E-07,-73.5191116333008
7.35008972277494E-07,-73.1488723754883
7.40009033313395E-07,-72.818000793457
7.45009094349296E-07,-72.523796081543
7.50009155385198E-07,-72.2635498046875
7.55009216421099E-07,-72.034553527832
7.60009277457E-07,-71.834098815918
7.65009338492901E-07,-71.6594772338867
7.70009399528803E-07,-71.5079803466797
7.75009460564704E-07,-71.3769073486328
7.80009521600605E-07,-71.263542175293
7.85009582636507E-07,-71.1651840209961
7.90009643672408E-07,-71.0791168212891
7.95009704708309E-07,-71.0127487182617
8.00009765744211E-07,-70.9938659667969
8.05009826780112E-07,-71.0173110961914
8.10009887816013E-07,-71.0753173828125
8.15009948851915E-07,-71.1600875854492
8.20010009887816E-07,-71.2638473510742
8.25010070923717E-07,-71.3788223266602
8.30010131959619E-07,-71.4972229003906
8.3501019299552E-07,-71.6112747192383
8.40010254031421E-07,-71.7132034301758
8.45010315067323E-07,-71.7952270507813
8.50010376103224E-07,-71.8495559692383
8.55010437139125E-07,-71.8684158325195
8.60010498175026E-07,-71.8451156616211
8.65010559210928E-07,-71.7893981933594
8.70010620246829E-07,-71.7084197998047
8.7501068128273E-07,-71.605842590332
8.80010742318632E-07,-71.4853439331055
8.85010803354533E-07,-71.3505783081055
8.90010864390434E-07,-71.205207824707
8.95010925426336E-07,-71.0529098510742
9.00010986462237E-07,-70.897331237793
9.05011047498138E-07,-70.7421569824219
9.1001110853404E-07,-70.5910415649414
9.15011169569941E-07,-70.4476470947266
9.20011230605842E-07,-70.3156433105469
9.25011291641744E-07,-70.1986923217773
9.30011352677645E-07,-70.0622177124023
9.35011413713546E-07,-69.8787460327148
9.40011474749448E-07,-69.6626281738281
9.45011535785349E-07,-69.4282150268555
9.5001159682125E-07,-69.1898574829102
9.55011657857151E-07,-68.9619064331055
9.60011718893053E-07,-68.7587051391602
9.65011779928954E-07,-68.594596862793
9.70011840964855E-07,-68.4839401245117
9.75011902000757E-07,-68.4410858154297
9.80011963036658E-07,-68.4803695678711
9.85012024072559E-07,-68.6161499023438
9.90012085108461E-07,-68.8627700805664
9.95012146144362E-07,-69.2549896240234
1.00001220718026E-06,-69.8494644165039
1.00501226821616E-06,-70.6146240234375
1.01001232925207E-06,-71.5128555297852
1.01501239028797E-06,-72.5065536499023
1.02001245132387E-06,-73.5580902099609
1.02501251235977E-06,-74.6298599243164
1.03001257339567E-06,-75.6842346191406
1.03501263443157E-06,-76.6836013793945
1.04001269546747E-06,-77.5903472900391
1.04501275650338E-06,-78.3668518066406
1.05001281753928E-06,-78.9755096435547
1.05501287857518E-06,-79.3786926269531
1.06001293961108E-06,-79.5415573120117
1.06501300064698E-06,-79.4819641113281
1.07001306168288E-06,-79.2341766357422
1.07501312271878E-06,-78.8262252807617
1.08001318375468E-06,-78.2861404418945
1.08501324479059E-06,-77.641960144043
1.09001330582649E-06,-76.9217224121094
1.09501336686239E-06,-76.153450012207
1.10001342789829E-06,-75.3651809692383
1.10501348893419E-06,-74.5849533081055
1.11001354997009E-06,-73.8408050537109
1.11501361100599E-06,-73.160758972168
1.1200136720419E-06,-72.5728530883789
1.1250137330778E-06,-72.1051177978516
1.1300137941137E-06,-71.7214813232422
1.1350138551496E-06,-71.3662414550781
1.1400139161855E-06,-71.0380096435547
1.1450139772214E-06,-70.7353973388672
1.1500140382573E-06,-70.4570159912109
1.1550140992932E-06,-70.2014770507813
1.16001416032911E-06,-69.9673843383789
1.16501422136501E-06,-69.7533645629883
1.17001428240091E-06,-69.5580139160156
1.17501434343681E-06,-69.3799591064453
1.18001440447271E-06,-69.2177963256836
1.18501446550861E-06,-69.0701446533203
1.19001452654451E-06,-68.9356155395508
1.19501458758041E-06,-68.8197784423828
1.20001464861632E-06,-68.7418060302734
1.20501470965222E-06,-68.6976318359375
1.21001477068812E-06,-68.6813659667969
1.21501483172402E-06,-68.6871185302734
1.22001489275992E-06,-68.7089996337891
1.22501495379582E-06,-68.7411346435547
1.23001501483172E-06,-68.7776184082031
1.23501507586763E-06,-68.8125762939453
1.24001513690353E-06,-68.8401184082031
1.24501519793943E-06,-68.8543472290039
1.25001525897533E-06,-68.8493881225586
1.25501532001123E-06,-68.8193435668945
1.26001538104713E-06,-68.7589340209961
1.26501544208303E-06,-68.6729583740234
1.27001550311893E-06,-68.5667953491211
1.27501556415484E-06,-68.4441375732422
1.28001562519074E-06,-68.3086624145508
1.28501568622664E-06,-68.1640472412109
1.29001574726254E-06,-68.0139846801758
1.29501580829844E-06,-67.8621444702148
1.30001586933434E-06,-67.7122116088867
1.30501593037024E-06,-67.56787109375
1.31001599140614E-06,-67.4328079223633
1.31501605244205E-06,-67.3106918334961
1.32001611347795E-06,-67.205207824707
1.32501617451385E-06,-67.1200485229492
1.33001623554975E-06,-67.0252227783203
1.33501629658565E-06,-66.896369934082
1.34001635762155E-06,-66.7455825805664
1.34501641865745E-06,-66.5849685668945
1.35001647969336E-06,-66.4266052246094
1.35501654072926E-06,-66.282600402832
1.36001660176516E-06,-66.1650466918945
1.36501666280106E-06,-66.0860443115234
1.37001672383696E-06,-66.0576782226563
1.37501678487286E-06,-66.0920562744141
1.38001684590876E-06,-66.2012634277344
1.38501690694466E-06,-66.3973999023438
1.39001696798057E-06,-66.6925659179688
1.39501702901647E-06,-67.1194229125977
1.40001709005237E-06,-67.7349853515625
1.40501715108827E-06,-68.5099868774414
1.41001721212417E-06,-69.4091262817383
1.41501727316007E-06,-70.3971176147461
1.42001733419597E-06,-71.4386520385742
1.42501739523188E-06,-72.4984512329102
1.43001745626778E-06,-73.5412063598633
1.43501751730368E-06,-74.5316314697266
1.44001757833958E-06,-75.4344253540039
1.44501763937548E-06,-76.2142944335938
1.45001770041138E-06,-76.8359527587891
1.45501776144728E-06,-77.2640991210938
1.46001782248318E-06,-77.4661712646484
1.46501788351909E-06,-77.4605331420898
1.47001794455499E-06,-77.2793502807617
1.47501800559089E-06,-76.9483489990234
1.48001806662679E-06,-76.4932861328125
1.48501812766269E-06,-75.9398880004883
1.49001818869859E-06,-75.3139038085938
1.49501824973449E-06,-74.6410598754883
1.5000183107704E-06,-73.9471054077148
1.5050183718063E-06,-73.2577743530273
1.5100184328422E-06,-72.5988159179688
1.5150184938781E-06,-71.9959564208984
1.520018554914E-06,-71.4749450683594
1.5250186159499E-06,-71.0615081787109
1.5300186769858E-06,-70.7277908325195
1.5350187380217E-06,-70.4262008666992
1.54001879905761E-06,-70.1529083251953
1.54501886009351E-06,-69.9040756225586
1.55001892112941E-06,-69.6758728027344
1.55501898216531E-06,-69.4644622802734
1.56001904320121E-06,-69.2660217285156
1.56501910423711E-06,-69.0767059326172
1.57001916527301E-06,-68.8926849365234
1.57501922630891E-06,-68.7101287841797
1.58001928734482E-06,-68.5252075195313
1.58501934838072E-06,-68.3340835571289
1.59001940941662E-06,-68.1329193115234
1.59501947045252E-06,-67.9263687133789
1.60001953148842E-06,-67.7377090454102
1.60501959252432E-06,-67.5642852783203
1.61001965356022E-06,-67.4012908935547
1.61501971459613E-06,-67.2439270019531
1.62001977563203E-06,-67.0873794555664
1.62501983666793E-06,-66.9268493652344
1.63001989770383E-06,-66.7575378417969
1.63501995873973E-06,-66.5746307373047
1.64002001977563E-06,-66.3733444213867
1.64502008081153E-06,-66.1488571166992
1.65002014184743E-06,-65.896369934082
1.65502020288334E-06,-65.611083984375
1.66002026391924E-06,-65.2882461547852
1.66502032495514E-06,-64.9266891479492
1.67002038599104E-06,-64.5307235717773
1.67502044702694E-06,-64.1051712036133
1.68002050806284E-06,-63.6548156738281
1.68502056909874E-06,-63.1844711303711
1.69002063013465E-06,-62.6989364624023
1.69502069117055E-06,-62.2030143737793
1.70002075220645E-06,-61.7015075683594
1.70502081324235E-06,-61.1992149353027
1.71002087427825E-06,-60.7009468078613
1.71502093531415E-06,-60.2114944458008
1.72002099635005E-06,-59.7356719970703
1.72502105738595E-06,-59.2782745361328
1.73002111842186E-06,-58.826042175293
1.73502117945776E-06,-58.3646583557129
1.74002124049366E-06,-57.8973197937012
1.74502130152956E-06,-57.4272422790527
1.75002136256546E-06,-56.9576187133789
1.75502142360136E-06,-56.4916648864746
1.76002148463726E-06,-56.0325813293457
1.76502154567316E-06,-55.5835762023926
1.77002160670907E-06,-55.1478500366211
1.77502166774497E-06,-54.7286148071289
1.78002172878087E-06,-54.3290672302246
1.78502178981677E-06,-53.9524192810059
1.79002185085267E-06,-53.6018753051758
1.79502191188857E-06,-53.2762413024902
1.80002197292447E-06,-52.9634742736816
1.80502203396038E-06,-52.6636543273926
1.81002209499628E-06,-52.3779335021973
1.81502215603218E-06,-52.1074523925781
1.82002221706808E-06,-51.8533554077148
1.82502227810398E-06,-51.6167907714844
1.83002233913988E-06,-51.3988990783691
1.83502240017578E-06,-51.2008285522461
1.84002246121168E-06,-51.0237236022949
1.84502252224759E-06,-50.8687286376953
1.85002258328349E-06,-50.7369918823242
1.85502264431939E-06,-50.6296539306641
1.86002270535529E-06,-50.5474700927734
1.86502276639119E-06,-50.4863166809082
1.87002282742709E-06,-50.4450988769531
1.87502288846299E-06,-50.4242362976074
1.8800229494989E-06,-50.424129486084
1.8850230105348E-06,-50.4452018737793
1.8900230715707E-06,-50.4878578186035
1.8950231326066E-06,-50.5525093078613
1.9000231936425E-06,-50.639575958252
1.9050232546784E-06,-50.7494621276855
1.9100233157143E-06,-50.8825836181641
1.9150233767502E-06,-51.0393524169922
1.92002343778611E-06,-51.2201805114746
1.92502349882201E-06,-51.4254760742188
1.93002355985791E-06,-51.6608467102051
1.93502362089381E-06,-51.9296188354492
1.94002368192971E-06,-52.2287864685059
1.94502374296561E-06,-52.5553436279297
1.95002380400151E-06,-52.9062843322754
1.95502386503741E-06,-53.2786102294922
1.96002392607332E-06,-53.6693153381348
1.96502398710922E-06,-54.0753936767578
1.97002404814512E-06,-54.493839263916
1.97502410918102E-06,-54.9216499328613
1.98002417021692E-06,-55.3558197021484
1.98502423125282E-06,-55.7933464050293
1.99002429228872E-06,-56.2312240600586
1.99502435332463E-06,-56.6772499084473
2.00002441436053E-06,-57.1611213684082
2.00502447539643E-06,-57.6774444580078
2.01002453643233E-06,-58.2180290222168
2.01502459746823E-06,-58.7746810913086
2.02002465850413E-06,-59.3392105102539
2.02502471954003E-06,-59.9034271240234
2.03002478057593E-06,-60.4591407775879
2.03502484161184E-06,-60.998161315918
2.04002490264774E-06,-61.5122947692871
2.04502496368364E-06,-61.993350982666
2.05002502471954E-06,-62.4331398010254
2.05502508575544E-06,-62.8234710693359
2.06002514679134E-06,-63.1579627990723
2.06502520782724E-06,-63.4546737670898
2.07002526886315E-06,-63.721248626709
2.07502532989905E-06,-63.9587898254395
2.08002539093495E-06,-64.1684036254883
2.08502545197085E-06,-64.351188659668
2.09002551300675E-06,-64.5082473754883
2.09502557404265E-06,-64.6406784057617
2.10002563507855E-06,-64.7495880126953
2.10502569611445E-06,-64.8360824584961
2.11002575715036E-06,-64.9012603759766
2.11502581818626E-06,-64.9462203979492
2.12002587922216E-06,-64.9720687866211
2.12502594025806E-06,-64.9799118041992
2.13002600129396E-06,-64.9599990844727
2.13502606232986E-06,-64.9045104980469
2.14002612336576E-06,-64.8174591064453
2.14502618440166E-06,-64.7028274536133
2.15002624543757E-06,-64.5646133422852
2.15502630647347E-06,-64.4068069458008
2.16002636750937E-06,-64.2334136962891
2.16502642854527E-06,-64.0484237670898
2.17002648958117E-06,-63.855827331543
2.17502655061707E-06,-63.6596260070801
2.18002661165297E-06,-63.463809967041
2.18502667268888E-06,-63.2723808288574
2.19002673372478E-06,-63.0893249511719
2.19502679476068E-06,-62.9116134643555
2.20002685579658E-06,-62.7199630737305
2.20502691683248E-06,-62.5157089233398
2.21002697786838E-06,-62.3019332885742
2.21502703890428E-06,-62.081714630127
2.22002709994018E-06,-61.8581275939941
2.22502716097609E-06,-61.6342506408691
2.23002722201199E-06,-61.4131622314453
2.23502728304789E-06,-61.1979370117188
2.24002734408379E-06,-60.9916610717773
2.24502740511969E-06,-60.7974052429199
2.25002746615559E-06,-60.6182479858398
2.25502752719149E-06,-60.4572677612305
2.2600275882274E-06,-60.3163146972656
2.2650276492633E-06,-60.1820640563965
2.2700277102992E-06,-60.0515670776367
2.2750277713351E-06,-59.9267120361328
2.280027832371E-06,-59.809383392334
2.2850278934069E-06,-59.701473236084
2.2900279544428E-06,-59.6048698425293
2.2950280154787E-06,-59.5214653015137
2.30002807651461E-06,-59.4531440734863
2.30502813755051E-06,-59.401798248291
2.31002819858641E-06,-59.3693161010742
2.31502825962231E-06,-59.3575897216797
2.32002832065821E-06,-59.3685035705566
2.32502838169411E-06,-59.4039459228516
2.33002844273001E-06,-59.4620666503906
2.33502850376592E-06,-59.5395011901855
2.34002856480182E-06,-59.635871887207
2.34502862583772E-06,-59.7508087158203
2.35002868687362E-06,-59.8839378356934
2.35502874790952E-06,-60.0348815917969
2.36002880894542E-06,-60.2032661437988
2.36502886998132E-06,-60.3887214660645
2.37002893101722E-06,-60.5908699035645
2.37502899205313E-06,-60.8093414306641
2.38002905308903E-06,-61.043758392334
2.38502911412493E-06,-61.2937469482422
2.39002917516083E-06,-61.5589370727539
2.39502923619673E-06,-61.8488273620605
2.40002929723263E-06,-62.1906318664551
2.40502935826853E-06,-62.5768852233887
2.41002941930443E-06,-62.9974784851074
2.41502948034034E-06,-63.4422988891602
2.42002954137624E-06,-63.9012336730957
2.42502960241214E-06,-64.3641738891602
2.43002966344804E-06,-64.8209991455078
2.43502972448394E-06,-65.2616119384766
2.44002978551984E-06,-65.675895690918
2.44502984655574E-06,-66.0537261962891
2.45002990759165E-06,-66.385009765625
2.45502996862755E-06,-66.6596221923828
2.46003002966345E-06,-66.8684997558594
2.46503009069935E-06,-67.0198364257813
