Trace
Swept SA
A.19.55,N9020B
508 AB2 B25 B40 B85 DP2 DP4 EP2 FS1 FS2 MPB RTL ,01
Segment,0
Number of Points,81920
Sweep Time,0.0004096
Start Frequency,2400000000
Stop Frequency,2400000000
Average Count,0
Average Type,LogPower(Video)
RBW,3000000
RBW Filter,Gaussian
RBW Filter BW,3dB
VBW,3000000
Sweep Type,Swept
X Axis Scale,Lin
PreAmp State,Off
PreAmp Band,Low
Trigger Source,Ext1
Trigger Level,1.2
Trigger Slope,Positive
Trigger Delay,1E-06
Phase Noise Optimization,Fast
Swept If Gain,Low
FFT If Gain,Autorange
RF Coupling,AC
FFT Width,411900
Ext Ref,10000000
Input,RF
RF Calibrator,Off
Attenuation,6
Ref Level Offset,0
External Gain,0
Trace Type,Clearwrite
Detector,Normal
Trace Math,Off
Trace Math Oper1,Trace5
Trace Math Oper2,Trace6
Trace Math Offset,0
Normalize,Off
Trace Name,Trace1
X Axis Units,s
Y Axis Units,dBm
DATA
0,-52.5950317382813
5.00006103590132E-09,-52.5363883972168
1.00001220718026E-08,-52.2813568115234
1.50001831077039E-08,-51.8659744262695
2.00002441436053E-08,-51.326286315918
2.50003051795066E-08,-50.6983299255371
3.00003662154079E-08,-50.0181427001953
3.50004272513092E-08,-49.3217658996582
4.00004882872105E-08,-48.6452407836914
4.50005493231118E-08,-48.0246047973633
5.00006103590132E-08,-47.4958992004395
5.50006713949145E-08,-47.0951652526855
6.00007324308158E-08,-46.8450126647949
6.50007934667171E-08,-46.6015853881836
7.00008545026184E-08,-46.3304100036621
7.50009155385197E-08,-46.0493583679199
8.00009765744211E-08,-45.7763023376465
8.50010376103224E-08,-45.5291213989258
9.00010986462237E-08,-45.3256874084473
9.5001159682125E-08,-45.1838760375977
1.00001220718026E-07,-45.1215591430664
1.05001281753928E-07,-45.1566200256348
1.10001342789829E-07,-45.3069229125977
1.1500140382573E-07,-45.5903511047363
1.20001464861632E-07,-46.024772644043
1.25001525897533E-07,-46.6280670166016
1.30001586933434E-07,-47.504638671875
1.35001647969336E-07,-48.7050590515137
1.40001709005237E-07,-50.1664657592773
1.45001770041138E-07,-51.825984954834
1.50001831077039E-07,-53.6207466125488
1.55001892112941E-07,-55.4878845214844
1.60001953148842E-07,-57.3645286560059
1.65002014184743E-07,-59.1878089904785
1.70002075220645E-07,-60.8948593139648
1.75002136256546E-07,-62.4228057861328
1.80002197292447E-07,-63.7087860107422
1.85002258328349E-07,-64.6899261474609
1.9000231936425E-07,-65.303352355957
1.95002380400151E-07,-65.4977264404297
2.00002441436053E-07,-65.3032150268555
2.05002502471954E-07,-64.7776870727539
2.10002563507855E-07,-63.9783363342285
2.15002624543757E-07,-62.9623756408691
2.20002685579658E-07,-61.7870140075684
2.25002746615559E-07,-60.5094566345215
2.30002807651461E-07,-59.1869087219238
2.35002868687362E-07,-57.8765754699707
2.40002929723263E-07,-56.6356658935547
2.45002990759165E-07,-55.5213813781738
2.50003051795066E-07,-54.590934753418
2.55003112830967E-07,-53.9015274047852
2.60003173866868E-07,-53.5028228759766
2.6500323490277E-07,-53.3284568786621
2.70003295938671E-07,-53.3258209228516
2.75003356974572E-07,-53.4661178588867
2.80003418010474E-07,-53.7205467224121
2.85003479046375E-07,-54.0603103637695
2.90003540082276E-07,-54.4566078186035
2.95003601118178E-07,-54.8806457519531
3.00003662154079E-07,-55.3036231994629
3.0500372318998E-07,-55.6967391967773
3.10003784225882E-07,-56.0311965942383
3.15003845261783E-07,-56.2781982421875
3.20003906297684E-07,-56.4089469909668
3.25003967333586E-07,-56.3946380615234
3.30004028369487E-07,-56.2538948059082
3.35004089405388E-07,-56.0314636230469
3.4000415044129E-07,-55.7377471923828
3.45004211477191E-07,-55.3831481933594
3.50004272513092E-07,-54.9780654907227
3.55004333548993E-07,-54.532901763916
3.60004394584895E-07,-54.0580635070801
3.65004455620796E-07,-53.5639457702637
3.70004516656697E-07,-53.0609550476074
3.75004577692599E-07,-52.5594940185547
3.800046387285E-07,-52.0699615478516
3.85004699764401E-07,-51.6027603149414
3.90004760800303E-07,-51.1682929992676
3.95004821836204E-07,-50.7594718933105
4.00004882872105E-07,-50.3283500671387
4.05004943908007E-07,-49.8777618408203
4.10005004943908E-07,-49.4148483276367
4.15005065979809E-07,-48.9467506408691
4.20005127015711E-07,-48.4806098937988
4.25005188051612E-07,-48.0235748291016
4.30005249087513E-07,-47.5827827453613
4.35005310123415E-07,-47.1653785705566
4.40005371159316E-07,-46.7785034179688
4.45005432195217E-07,-46.4292984008789
4.50005493231119E-07,-46.1249122619629
4.5500555426702E-07,-45.8724822998047
4.60005615302921E-07,-45.677173614502
4.65005676338822E-07,-45.5184631347656
4.70005737374724E-07,-45.3896255493164
4.75005798410625E-07,-45.2913780212402
4.80005859446526E-07,-45.2244491577148
4.85005920482428E-07,-45.1895561218262
4.90005981518329E-07,-45.1874237060547
4.9500604255423E-07,-45.2187690734863
5.00006103590132E-07,-45.2843170166016
5.05006164626033E-07,-45.3847885131836
5.10006225661934E-07,-45.5209083557129
5.15006286697836E-07,-45.6933937072754
5.20006347733737E-07,-45.9029731750488
5.25006408769638E-07,-46.1503601074219
5.3000646980554E-07,-46.4860382080078
5.35006530841441E-07,-46.9433174133301
5.40006591877342E-07,-47.497142791748
5.45006652913243E-07,-48.1224708557129
5.50006713949145E-07,-48.7942543029785
5.55006774985046E-07,-49.4874496459961
5.60006836020948E-07,-50.1770133972168
5.65006897056849E-07,-50.837890625
5.7000695809275E-07,-51.4450416564941
5.75007019128651E-07,-51.9734153747559
5.80007080164553E-07,-52.3979721069336
5.85007141200454E-07,-52.693660736084
5.90007202236355E-07,-52.8354339599609
5.95007263272257E-07,-52.801326751709
6.00007324308158E-07,-52.599178314209
6.05007385344059E-07,-52.2532501220703
6.10007446379961E-07,-51.7879409790039
6.15007507415862E-07,-51.2276611328125
6.20007568451763E-07,-50.5968132019043
6.25007629487665E-07,-49.9198036193848
6.30007690523566E-07,-49.2210311889648
6.35007751559467E-07,-48.5249061584473
6.40007812595369E-07,-47.855827331543
6.4500787363127E-07,-47.2382049560547
6.50007934667171E-07,-46.6964416503906
6.55007995703072E-07,-46.254940032959
6.60008056738974E-07,-45.9327278137207
6.65008117774875E-07,-45.6760635375977
6.70008178810776E-07,-45.4621772766113
6.75008239846678E-07,-45.2877502441406
6.80008300882579E-07,-45.1494789123535
6.8500836191848E-07,-45.0440444946289
6.90008422954382E-07,-44.9681396484375
6.95008483990283E-07,-44.91845703125
7.00008545026184E-07,-44.8916778564453
7.05008606062086E-07,-44.8844947814941
7.10008667097987E-07,-44.8935928344727
7.15008728133888E-07,-44.9156684875488
7.2000878916979E-07,-44.9473991394043
7.25008850205691E-07,-44.9854850769043
7.30008911241592E-07,-45.0513000488281
7.35008972277494E-07,-45.1629905700684
7.40009033313395E-07,-45.3123931884766
7.45009094349296E-07,-45.491340637207
7.50009155385198E-07,-45.6916770935059
7.55009216421099E-07,-45.9052314758301
7.60009277457E-07,-46.1238403320313
7.65009338492901E-07,-46.3393440246582
7.70009399528803E-07,-46.5435752868652
7.75009460564704E-07,-46.7283706665039
7.80009521600605E-07,-46.8855667114258
7.85009582636507E-07,-47.0069961547852
7.90009643672408E-07,-47.0844993591309
7.95009704708309E-07,-47.1131820678711
8.00009765744211E-07,-47.1018562316895
8.05009826780112E-07,-47.0566177368164
8.10009887816013E-07,-46.9830093383789
8.15009948851915E-07,-46.8865623474121
8.20010009887816E-07,-46.772819519043
8.25010070923717E-07,-46.6473121643066
8.30010131959619E-07,-46.5155868530273
8.3501019299552E-07,-46.383171081543
8.40010254031421E-07,-46.2556076049805
8.45010315067323E-07,-46.1384315490723
8.50010376103224E-07,-46.0371780395508
8.55010437139125E-07,-45.957389831543
8.60010498175026E-07,-45.8986625671387
8.65010559210928E-07,-45.7932891845703
8.70010620246829E-07,-45.6353759765625
8.7501068128273E-07,-45.4437675476074
8.80010742318632E-07,-45.2373085021973
8.85010803354533E-07,-45.0348320007324
8.90010864390434E-07,-44.8551864624023
8.95010925426336E-07,-44.717212677002
9.00010986462237E-07,-44.6397514343262
9.05011047498138E-07,-44.6416473388672
9.1001110853404E-07,-44.7417449951172
9.15011169569941E-07,-44.9588775634766
9.20011230605842E-07,-45.311897277832
9.25011291641744E-07,-45.819637298584
9.30011352677645E-07,-46.5702056884766
9.35011413713546E-07,-47.6020736694336
9.40011474749448E-07,-48.8596572875977
9.45011535785349E-07,-50.2873573303223
9.5001159682125E-07,-51.8295936584473
9.55011657857151E-07,-53.4307670593262
9.60011718893053E-07,-55.0352935791016
9.65011779928954E-07,-56.587574005127
9.70011840964855E-07,-58.0320243835449
9.75011902000757E-07,-59.3130531311035
9.80011963036658E-07,-60.375072479248
9.85012024072559E-07,-61.162483215332
9.90012085108461E-07,-61.619701385498
9.95012146144362E-07,-61.7054328918457
1.00001220718026E-06,-61.4576873779297
1.00501226821616E-06,-60.9243545532227
1.01001232925207E-06,-60.1516380310059
1.01501239028797E-06,-59.1857376098633
1.02001245132387E-06,-58.0728645324707
1.02501251235977E-06,-56.8592109680176
1.03001257339567E-06,-55.5909843444824
1.03501263443157E-06,-54.3143920898438
1.04001269546747E-06,-53.075626373291
1.04501275650338E-06,-51.9208984375
1.05001281753928E-06,-50.8964080810547
1.05501287857518E-06,-50.0483551025391
1.06001293961108E-06,-49.4126777648926
1.06501300064698E-06,-48.886646270752
1.07001306168288E-06,-48.427131652832
1.07501312271878E-06,-48.0282135009766
1.08001318375468E-06,-47.6839714050293
1.08501324479059E-06,-47.388484954834
1.09001330582649E-06,-47.1358375549316
1.09501336686239E-06,-46.920108795166
1.10001342789829E-06,-46.7353782653809
1.10501348893419E-06,-46.5757255554199
1.11001354997009E-06,-46.4352340698242
1.11501361100599E-06,-46.3079795837402
1.1200136720419E-06,-46.188045501709
1.1250137330778E-06,-46.0695152282715
1.1300137941137E-06,-45.9752388000488
1.1350138551496E-06,-45.9272727966309
1.1400139161855E-06,-45.9184989929199
1.1450139772214E-06,-45.9417953491211
1.1500140382573E-06,-45.990047454834
1.1550140992932E-06,-46.0561332702637
1.16001416032911E-06,-46.1329383850098
1.16501422136501E-06,-46.2133407592773
1.17001428240091E-06,-46.2902221679688
1.17501434343681E-06,-46.3564682006836
1.18001440447271E-06,-46.404956817627
1.18501446550861E-06,-46.4285697937012
1.19001452654451E-06,-46.4201889038086
1.19501458758041E-06,-46.376106262207
1.20001464861632E-06,-46.3055229187012
1.20501470965222E-06,-46.2133293151855
1.21001477068812E-06,-46.1037521362305
1.21501483172402E-06,-45.9810333251953
1.22001489275992E-06,-45.8494110107422
1.22501495379582E-06,-45.7131195068359
1.23001501483172E-06,-45.5763931274414
1.23501507586763E-06,-45.443473815918
1.24001513690353E-06,-45.3185958862305
1.24501519793943E-06,-45.2059936523438
1.25001525897533E-06,-45.1099090576172
1.25501532001123E-06,-45.0345802307129
1.26001538104713E-06,-44.978630065918
1.26501544208303E-06,-44.8777503967285
1.27001550311893E-06,-44.7272644042969
1.27501556415484E-06,-44.5460052490234
1.28001562519074E-06,-44.3528060913086
1.28501568622664E-06,-44.1664962768555
1.29001574726254E-06,-44.0059089660645
1.29501580829844E-06,-43.8898773193359
1.30001586933434E-06,-43.837230682373
1.30501593037024E-06,-43.8668060302734
1.31001599140614E-06,-43.997428894043
1.31501605244205E-06,-44.247932434082
1.32001611347795E-06,-44.6371536254883
1.32501617451385E-06,-45.1839179992676
1.33001623554975E-06,-45.9805374145508
1.33501629658565E-06,-47.0683479309082
1.34001635762155E-06,-48.3897132873535
1.34501641865745E-06,-49.8870086669922
1.35001647969336E-06,-51.5025939941406
1.35501654072926E-06,-53.1788444519043
1.36001660176516E-06,-54.8581275939941
1.36501666280106E-06,-56.4828071594238
1.37001672383696E-06,-57.9952583312988
1.37501678487286E-06,-59.3378486633301
1.38001684590876E-06,-60.4529418945313
1.38501690694466E-06,-61.2829093933105
1.39001696798057E-06,-61.7701225280762
1.39501702901647E-06,-61.8725357055664
1.40001709005237E-06,-61.6316566467285
1.40501715108827E-06,-61.0965270996094
1.41001721212417E-06,-60.3142356872559
1.41501727316007E-06,-59.3318634033203
1.42001733419597E-06,-58.1964912414551
1.42501739523188E-06,-56.9552116394043
1.43001745626778E-06,-55.6551055908203
1.43501751730368E-06,-54.3432540893555
1.44001757833958E-06,-53.0667457580566
1.44501763937548E-06,-51.8726615905762
1.45001770041138E-06,-50.8080902099609
1.45501776144728E-06,-49.9201126098633
1.46001782248318E-06,-49.246223449707
1.46501788351909E-06,-48.6919708251953
1.47001794455499E-06,-48.2135391235352
1.47501800559089E-06,-47.8012809753418
1.48001806662679E-06,-47.4455451965332
1.48501812766269E-06,-47.1366844177246
1.49001818869859E-06,-46.8650550842285
1.49501824973449E-06,-46.6210098266602
1.5000183107704E-06,-46.3948936462402
1.5050183718063E-06,-46.1770668029785
1.5100184328422E-06,-45.9578819274902
1.5150184938781E-06,-45.7276840209961
1.520018554914E-06,-45.4768333435059
1.5250186159499E-06,-45.1956748962402
1.5300186769858E-06,-44.907600402832
1.5350187380217E-06,-44.6391830444336
1.54001879905761E-06,-44.3855667114258
1.54501886009351E-06,-44.1418914794922
1.55001892112941E-06,-43.9033012390137
1.55501898216531E-06,-43.6649398803711
1.56001904320121E-06,-43.4219512939453
1.56501910423711E-06,-43.1694755554199
1.57001916527301E-06,-42.9026565551758
1.57501922630891E-06,-42.6166343688965
1.58001928734482E-06,-42.3065567016602
1.58501934838072E-06,-41.9675636291504
1.59001940941662E-06,-41.594799041748
1.59501947045252E-06,-41.1833267211914
1.60001953148842E-06,-40.7328071594238
1.60501959252432E-06,-40.2484855651855
1.61001965356022E-06,-39.7358093261719
1.61501971459613E-06,-39.2002296447754
1.62001977563203E-06,-38.6472053527832
1.62501983666793E-06,-38.0821800231934
1.63001989770383E-06,-37.5106086730957
1.63501995873973E-06,-36.9379463195801
1.64002001977563E-06,-36.3696365356445
1.64502008081153E-06,-35.8111381530762
1.65002014184743E-06,-35.2678985595703
1.65502020288334E-06,-34.7453727722168
1.66002026391924E-06,-34.2469520568848
1.66502032495514E-06,-33.7505722045898
1.67002038599104E-06,-33.2510185241699
1.67502044702694E-06,-32.7510986328125
1.68002050806284E-06,-32.2536239624023
1.68502056909874E-06,-31.7614078521729
1.69002063013465E-06,-31.2772560119629
1.69502069117055E-06,-30.8039836883545
1.70002075220645E-06,-30.3444004058838
1.70502081324235E-06,-29.9013156890869
1.71002087427825E-06,-29.4775428771973
1.71502093531415E-06,-29.075891494751
1.72002099635005E-06,-28.6991729736328
1.72502105738595E-06,-28.3501968383789
1.73002111842186E-06,-28.0231170654297
1.73502117945776E-06,-27.7108402252197
1.74002124049366E-06,-27.4143123626709
1.74502130152956E-06,-27.1344795227051
1.75002136256546E-06,-26.8722877502441
1.75502142360136E-06,-26.62868309021
1.76002148463726E-06,-26.4046115875244
1.76502154567316E-06,-26.2010192871094
1.77002160670907E-06,-26.0188522338867
1.77502166774497E-06,-25.8590545654297
1.78002172878087E-06,-25.7225761413574
1.78502178981677E-06,-25.6103591918945
1.79002185085267E-06,-25.5233497619629
1.79502191188857E-06,-25.4609222412109
1.80002197292447E-06,-25.4187545776367
1.80502203396038E-06,-25.3970928192139
1.81002209499628E-06,-25.3965702056885
1.81502215603218E-06,-25.4178218841553
1.82002221706808E-06,-25.4614810943604
1.82502227810398E-06,-25.5281791687012
1.83002233913988E-06,-25.6185493469238
1.83502240017578E-06,-25.7332286834717
1.84002246121168E-06,-25.8728466033936
1.84502252224759E-06,-26.0380401611328
1.85002258328349E-06,-26.2294387817383
1.85502264431939E-06,-26.4476795196533
1.86002270535529E-06,-26.6936702728271
1.86502276639119E-06,-26.9709014892578
1.87002282742709E-06,-27.2788505554199
1.87502288846299E-06,-27.615701675415
1.8800229494989E-06,-27.9796485900879
1.8850230105348E-06,-28.36887550354
1.8900230715707E-06,-28.7815761566162
1.8950231326066E-06,-29.215934753418
1.9000231936425E-06,-29.6701431274414
1.9050232546784E-06,-30.142391204834
1.9100233157143E-06,-30.6308650970459
1.9150233767502E-06,-31.1337547302246
1.92002343778611E-06,-31.6492519378662
1.92502349882201E-06,-32.1755409240723
1.93002355985791E-06,-32.7381057739258
1.93502362089381E-06,-33.3561820983887
1.94002368192971E-06,-34.0186042785645
1.94502374296561E-06,-34.7141914367676
1.95002380400151E-06,-35.4317817687988
1.95502386503741E-06,-36.1601943969727
1.96002392607332E-06,-36.8882598876953
1.96502398710922E-06,-37.6048049926758
1.97002404814512E-06,-38.2986602783203
1.97502410918102E-06,-38.9586563110352
1.98002417021692E-06,-39.5736122131348
1.98502423125282E-06,-40.1323661804199
1.99002429228872E-06,-40.6237373352051
1.99502435332463E-06,-41.0425109863281
2.00002441436053E-06,-41.4048194885254
2.00502447539643E-06,-41.7178344726563
2.01002453643233E-06,-41.9875564575195
2.01502459746823E-06,-42.2199859619141
2.02002465850413E-06,-42.4211273193359
2.02502471954003E-06,-42.5969886779785
2.03002478057593E-06,-42.7535629272461
2.03502484161184E-06,-42.8968544006348
2.04002490264774E-06,-43.0328712463379
2.04502496368364E-06,-43.167610168457
2.05002502471954E-06,-43.3070755004883
2.05502508575544E-06,-43.4572677612305
2.06002514679134E-06,-43.620979309082
2.06502520782724E-06,-43.7627410888672
2.07002526886315E-06,-43.8766593933105
2.07502532989905E-06,-43.9697723388672
2.08002539093495E-06,-44.0491218566895
2.08502545197085E-06,-44.1217460632324
2.09002551300675E-06,-44.1946792602539
2.09502557404265E-06,-44.2749671936035
2.10002563507855E-06,-44.3696403503418
2.10502569611445E-06,-44.4857406616211
2.11002575715036E-06,-44.6303062438965
2.11502581818626E-06,-44.810375213623
2.12002587922216E-06,-45.0329895019531
2.12502594025806E-06,-45.3051834106445
2.13002600129396E-06,-45.6642761230469
2.13502606232986E-06,-46.127628326416
2.14002612336576E-06,-46.6723213195801
2.14502618440166E-06,-47.275447845459
2.15002624543757E-06,-47.9140930175781
2.15502630647347E-06,-48.5653457641602
2.16002636750937E-06,-49.206298828125
2.16502642854527E-06,-49.8140335083008
2.17002648958117E-06,-50.3656463623047
2.17502655061707E-06,-50.8382225036621
2.18002661165297E-06,-51.2088470458984
2.18502667268888E-06,-51.4546089172363
2.19002673372478E-06,-51.5526008605957
2.19502679476068E-06,-51.4805488586426
2.20002685579658E-06,-51.2396354675293
2.20502691683248E-06,-50.8537826538086
2.21002697786838E-06,-50.3476295471191
2.21502703890428E-06,-49.7458190917969
2.22002709994018E-06,-49.0729904174805
2.22502716097609E-06,-48.3537902832031
2.23002722201199E-06,-47.6128578186035
2.23502728304789E-06,-46.8748321533203
2.24002734408379E-06,-46.1643600463867
2.24502740511969E-06,-45.5060768127441
2.25002746615559E-06,-44.924633026123
2.25502752719149E-06,-44.4446601867676
2.2600275882274E-06,-44.0829582214355
2.2650276492633E-06,-43.7568359375
2.2700277102992E-06,-43.4429168701172
2.2750277713351E-06,-43.1479034423828
2.280027832371E-06,-42.8784790039063
2.2850278934069E-06,-42.6413383483887
2.2900279544428E-06,-42.443172454834
2.2950280154787E-06,-42.2906723022461
2.30002807651461E-06,-42.1905288696289
2.30502813755051E-06,-42.1494369506836
2.31002819858641E-06,-42.1740837097168
2.31502825962231E-06,-42.2711639404297
2.32002832065821E-06,-42.4473686218262
2.32502838169411E-06,-42.7093849182129
2.33002844273001E-06,-43.111457824707
2.33502850376592E-06,-43.6827507019043
2.34002856480182E-06,-44.3923568725586
2.34502862583772E-06,-45.2093734741211
2.35002868687362E-06,-46.1028900146484
2.35502874790952E-06,-47.0420074462891
2.36002880894542E-06,-47.9958152770996
2.36502886998132E-06,-48.933406829834
2.37002893101722E-06,-49.8238754272461
2.37502899205313E-06,-50.6363143920898
2.38002905308903E-06,-51.3398208618164
2.38502911412493E-06,-51.9034843444824
2.39002917516083E-06,-52.2964019775391
2.39502923619673E-06,-52.5018615722656
2.40002929723263E-06,-52.5582008361816
2.40502935826853E-06,-52.4870758056641
2.41002941930443E-06,-52.3075218200684
2.41502948034034E-06,-52.0385704040527
2.42002954137624E-06,-51.6992530822754
2.42502960241214E-06,-51.3086013793945
2.43002966344804E-06,-50.8856544494629
2.43502972448394E-06,-50.4494400024414
2.44002978551984E-06,-50.0189933776855
2.44502984655574E-06,-49.6133460998535
2.45002990759165E-06,-49.2515296936035
2.45502996862755E-06,-48.9525756835938
2.46003002966345E-06,-48.7268676757813
2.46503009069935E-06,-48.4799690246582
2.47003015173525E-06,-48.1934356689453
