Trace
Swept SA
A.19.55,N9020B
508 AB2 B25 B40 B85 DP2 DP4 EP2 FS1 FS2 MPB RTL ,01
Segment,0
Number of Points,81920
Sweep Time,0.000452266667
Start Frequency,2400000000
Stop Frequency,2400000000
Average Count,1
Average Type,LogPower(Video)
RBW,3000000
RBW Filter,Gaussian
RBW Filter BW,3dB
VBW,3000000
Sweep Type,Swept
X Axis Scale,Lin
PreAmp State,Off
PreAmp Band,Low
Trigger Source,Ext1
Trigger Level,1.2
Trigger Slope,Positive
Trigger Delay,1E-06
Phase Noise Optimization,Fast
Swept If Gain,Low
FFT If Gain,Autorange
RF Coupling,AC
FFT Width,411900
Ext Ref,10000000
Input,RF
RF Calibrator,Off
Attenuation,6
Ref Level Offset,0
External Gain,0
Trace Type,Clearwrite
Detector,Normal
Trace Math,Off
Trace Math Oper1,Trace5
Trace Math Oper2,Trace6
Trace Math Offset,0
Normalize,Off
Trace Name,Trace1
X Axis Units,s
Y Axis Units,dBm
DATA
0,-62.8139381408691
5.5209007312101E-09,-62.6387710571289
1.10418014624202E-08,-62.4296569824219
1.65627021936303E-08,-62.1943397521973
2.20836029248404E-08,-61.9405517578125
2.76045036560505E-08,-61.6760368347168
3.31254043872606E-08,-61.4085235595703
3.86463051184707E-08,-61.145751953125
4.41672058496808E-08,-60.8954582214355
4.96881065808909E-08,-60.6653823852539
5.5209007312101E-08,-60.4632606506348
6.07299080433111E-08,-60.2818222045898
6.62508087745212E-08,-60.0994987487793
7.17717095057313E-08,-59.9180603027344
7.72926102369414E-08,-59.7397270202637
8.28135109681515E-08,-59.5667190551758
8.83344116993616E-08,-59.401252746582
9.38553124305717E-08,-59.2455558776855
9.93762131617818E-08,-59.1018409729004
1.04897113892992E-07,-58.9723281860352
1.10418014624202E-07,-58.859245300293
1.15938915355412E-07,-58.7648048400879
1.21459816086622E-07,-58.6912269592285
1.26980716817832E-07,-58.6383209228516
1.32501617549042E-07,-58.601490020752
1.38022518280252E-07,-58.5801658630371
1.43543419011463E-07,-58.5739707946777
1.49064319742673E-07,-58.5825233459473
1.54585220473883E-07,-58.6054420471191
1.60106121205093E-07,-58.6423492431641
1.65627021936303E-07,-58.6928596496582
1.71147922667513E-07,-58.7565956115723
1.76668823398723E-07,-58.8331718444824
1.82189724129933E-07,-58.9222183227539
1.87710624861143E-07,-59.0233421325684
1.93231525592353E-07,-59.1364288330078
1.98752426323564E-07,-59.2621040344238
2.04273327054774E-07,-59.4005508422852
2.09794227785984E-07,-59.5519256591797
2.15315128517194E-07,-59.7163696289063
2.20836029248404E-07,-59.8940315246582
2.26356929979614E-07,-60.0850601196289
2.31877830710824E-07,-60.2896041870117
2.37398731442034E-07,-60.5078125
2.42919632173244E-07,-60.7398262023926
2.48440532904454E-07,-60.9858016967773
2.53961433635664E-07,-61.2458801269531
2.59482334366875E-07,-61.5260696411133
2.65003235098085E-07,-61.8451156616211
2.70524135829295E-07,-62.1972846984863
2.76045036560505E-07,-62.5745010375977
2.81565937291715E-07,-62.9686813354492
2.87086838022925E-07,-63.3717498779297
2.92607738754135E-07,-63.7756233215332
2.98128639485345E-07,-64.172233581543
3.03649540216555E-07,-64.5534896850586
3.09170440947765E-07,-64.9113159179688
3.14691341678976E-07,-65.2376327514648
3.20212242410186E-07,-65.5243682861328
3.25733143141396E-07,-65.7693786621094
3.31254043872606E-07,-65.9968872070313
3.36774944603816E-07,-66.2092666625977
3.42295845335026E-07,-66.405029296875
3.47816746066236E-07,-66.5826950073242
3.53337646797446E-07,-66.7407836914063
3.58858547528656E-07,-66.877815246582
3.64379448259866E-07,-66.992301940918
3.69900348991077E-07,-67.0827713012695
3.75421249722287E-07,-67.1477355957031
3.80942150453497E-07,-67.1857147216797
3.86463051184707E-07,-67.1952285766602
3.91983951915917E-07,-67.1689224243164
3.97504852647127E-07,-67.0717697143555
4.03025753378337E-07,-66.9108810424805
4.08546654109547E-07,-66.7015228271484
4.14067554840757E-07,-66.4589538574219
4.19588455571967E-07,-66.1984252929688
4.25109356303178E-07,-65.9352111816406
4.30630257034388E-07,-65.6845550537109
4.36151157765598E-07,-65.4617309570313
4.41672058496808E-07,-65.2819976806641
4.47192959228018E-07,-65.1606063842773
4.52713859959228E-07,-65.1128311157227
4.58234760690438E-07,-65.1540374755859
4.63755661421648E-07,-65.2903289794922
4.69276562152858E-07,-65.5072021484375
4.74797462884068E-07,-65.787971496582
4.80318363615278E-07,-66.1158981323242
4.85839264346489E-07,-66.4742889404297
4.91360165077699E-07,-66.8464126586914
4.96881065808909E-07,-67.2155685424805
5.02401966540119E-07,-67.5650329589844
5.07922867271329E-07,-67.8781051635742
5.13443768002539E-07,-68.1380615234375
5.18964668733749E-07,-68.3281860351563
5.24485569464959E-07,-68.4345703125
5.30006470196169E-07,-68.4854965209961
5.3552737092738E-07,-68.4956817626953
5.4104827165859E-07,-68.468879699707
5.465691723898E-07,-68.408821105957
5.5209007312101E-07,-68.3192443847656
5.5761097385222E-07,-68.2039031982422
5.6313187458343E-07,-68.0665283203125
5.6865277531464E-07,-67.9108657836914
5.7417367604585E-07,-67.7406539916992
5.7969457677706E-07,-67.5596389770508
5.8521547750827E-07,-67.3715591430664
5.90736378239481E-07,-67.1783065795898
5.96257278970691E-07,-66.9434585571289
6.01778179701901E-07,-66.6604461669922
6.07299080433111E-07,-66.3409957885742
6.12819981164321E-07,-65.9968414306641
6.18340881895531E-07,-65.6397094726563
6.23861782626741E-07,-65.2813262939453
6.29382683357951E-07,-64.9334335327148
6.34903584089161E-07,-64.6077499389648
6.40424484820371E-07,-64.3160171508789
6.45945385551581E-07,-64.0699462890625
6.51466286282792E-07,-63.881290435791
6.56987187014002E-07,-63.7615852355957
6.62508087745212E-07,-63.7098159790039
6.68028988476422E-07,-63.7151298522949
6.73549889207632E-07,-63.7686233520508
6.79070789938842E-07,-63.861385345459
6.84591690670052E-07,-63.9845199584961
6.90112591401262E-07,-64.1291198730469
6.95633492132472E-07,-64.2862777709961
7.01154392863682E-07,-64.4470901489258
7.06675293594893E-07,-64.6026611328125
7.12196194326103E-07,-64.7440719604492
7.17717095057313E-07,-64.862434387207
7.23237995788523E-07,-64.9490661621094
7.28758896519733E-07,-65.0265045166016
7.34279797250943E-07,-65.1114120483398
7.39800697982153E-07,-65.1998138427734
7.45321598713363E-07,-65.2877349853516
7.50842499444573E-07,-65.3712005615234
7.56363400175783E-07,-65.4462356567383
7.61884300906994E-07,-65.5088500976563
7.67405201638204E-07,-65.5550689697266
7.72926102369414E-07,-65.5809173583984
7.78447003100624E-07,-65.5824203491211
7.83967903831834E-07,-65.5555953979492
7.89488804563044E-07,-65.4964599609375
7.95009705294254E-07,-65.3863296508789
8.00530606025464E-07,-65.2186889648438
8.06051506756674E-07,-65.0059509277344
8.11572407487884E-07,-64.7605361938477
8.17093308219094E-07,-64.4948425292969
8.22614208950305E-07,-64.2212905883789
8.28135109681515E-07,-63.952278137207
8.33656010412725E-07,-63.7002258300781
8.39176911143935E-07,-63.4775390625
8.44697811875145E-07,-63.296630859375
8.50218712606355E-07,-63.1699104309082
8.55739613337565E-07,-63.1097869873047
8.61260514068775E-07,-63.114860534668
8.66781414799985E-07,-63.1686897277832
8.72302315531195E-07,-63.2650833129883
8.77823216262406E-07,-63.3978881835938
8.83344116993616E-07,-63.5609550476074
8.88865017724826E-07,-63.7481269836426
8.94385918456036E-07,-63.9532585144043
8.99906819187246E-07,-64.1701889038086
9.05427719918456E-07,-64.3927764892578
9.10948620649666E-07,-64.6148681640625
9.16469521380876E-07,-64.8302993774414
9.21990422112086E-07,-65.0329360961914
9.27511322843296E-07,-65.2466201782227
9.33032223574507E-07,-65.5094909667969
9.38553124305717E-07,-65.8080291748047
9.44074025036927E-07,-66.1280212402344
9.49594925768137E-07,-66.4552459716797
9.55115826499347E-07,-66.7754745483398
9.60636727230557E-07,-67.0745010375977
9.66157627961767E-07,-67.3380813598633
9.71678528692977E-07,-67.5520095825195
9.77199429424187E-07,-67.7020568847656
9.82720330155397E-07,-67.7740097045898
9.88241230886608E-07,-67.7536315917969
9.93762131617818E-07,-67.6211013793945
9.99283032349028E-07,-67.3691558837891
1.00480393308024E-06,-67.0181350708008
1.01032483381145E-06,-66.5890121459961
1.01584573454266E-06,-66.1027603149414
1.02136663527387E-06,-65.5803451538086
1.02688753600508E-06,-65.0427398681641
1.03240843673629E-06,-64.5109252929688
1.0379293374675E-06,-64.0058746337891
1.04345023819871E-06,-63.5485458374023
1.04897113892992E-06,-63.1599235534668
1.05449203966113E-06,-62.8609733581543
1.06001294039234E-06,-62.6551284790039
1.06553384112355E-06,-62.5023155212402
1.07105474185476E-06,-62.3945732116699
1.07657564258597E-06,-62.3263130187988
1.08209654331718E-06,-62.291934967041
1.08761744404839E-06,-62.2858619689941
1.0931383447796E-06,-62.3024940490723
1.09865924551081E-06,-62.3362464904785
1.10418014624202E-06,-62.3815307617188
1.10970104697323E-06,-62.4327545166016
1.11522194770444E-06,-62.4843292236328
1.12074284843565E-06,-62.5306663513184
1.12626374916686E-06,-62.5756492614746
1.13178464989807E-06,-62.6471786499023
1.13730555062928E-06,-62.742359161377
1.14282645136049E-06,-62.8553161621094
1.1483473520917E-06,-62.9801940917969
1.15386825282291E-06,-63.1111259460449
1.15938915355412E-06,-63.2422409057617
1.16491005428533E-06,-63.3676795959473
1.17043095501654E-06,-63.481575012207
1.17595185574775E-06,-63.5780601501465
1.18147275647896E-06,-63.6512718200684
1.18699365721017E-06,-63.6953468322754
1.19251455794138E-06,-63.7031173706055
1.19803545867259E-06,-63.6685752868652
1.2035563594038E-06,-63.599048614502
1.20907726013501E-06,-63.5031051635742
1.21459816086622E-06,-63.389289855957
1.22011906159743E-06,-63.2661590576172
1.22563996232864E-06,-63.1422691345215
1.23116086305985E-06,-63.0261764526367
1.23668176379106E-06,-62.9264373779297
1.24220266452227E-06,-62.8515968322754
1.24772356525348E-06,-62.8102188110352
1.25324446598469E-06,-62.8108558654785
1.2587653667159E-06,-62.8593521118164
1.26428626744711E-06,-62.9429321289063
1.26980716817832E-06,-63.055736541748
1.27532806890953E-06,-63.1943283081055
1.28084896964074E-06,-63.3552551269531
1.28636987037195E-06,-63.5350723266602
1.29189077110316E-06,-63.7303276062012
1.29741167183437E-06,-63.9375801086426
1.30293257256558E-06,-64.1533813476563
1.30845347329679E-06,-64.3742752075195
1.313974374028E-06,-64.5968246459961
1.31949527475921E-06,-64.8175888061523
1.32501617549042E-06,-65.0392913818359
1.33053707622163E-06,-65.3080520629883
1.33605797695284E-06,-65.6220245361328
1.34157887768405E-06,-65.966423034668
1.34709977841526E-06,-66.3264617919922
1.35262067914647E-06,-66.6873474121094
1.35814157987768E-06,-67.0343017578125
1.36366248060889E-06,-67.3525390625
1.3691833813401E-06,-67.6272735595703
1.37470428207131E-06,-67.8437118530273
1.38022518280252E-06,-67.9870758056641
1.38574608353373E-06,-68.0425872802734
1.39126698426494E-06,-67.9948043823242
1.39678788499615E-06,-67.830810546875
1.40230878572736E-06,-67.5642471313477
1.40782968645858E-06,-67.213623046875
1.41335058718979E-06,-66.7974166870117
1.418871487921E-06,-66.3341293334961
1.42439238865221E-06,-65.8422546386719
1.42991328938342E-06,-65.3403015136719
1.43543419011463E-06,-64.8467483520508
1.44095509084584E-06,-64.3800964355469
1.44647599157705E-06,-63.9588470458984
1.45199689230826E-06,-63.601490020752
1.45751779303947E-06,-63.3252716064453
1.46303869377068E-06,-63.1161575317383
1.46855959450189E-06,-62.9568176269531
1.4740804952331E-06,-62.837028503418
1.47960139596431E-06,-62.7465667724609
1.48512229669552E-06,-62.6752166748047
1.49064319742673E-06,-62.6127548217773
1.49616409815794E-06,-62.548957824707
1.50168499888915E-06,-62.4736022949219
1.50720589962036E-06,-62.3764724731445
1.51272680035157E-06,-62.2473449707031
1.51824770108278E-06,-62.076000213623
1.52376860181399E-06,-61.8529167175293
1.5292895025452E-06,-61.5962371826172
1.53481040327641E-06,-61.3183670043945
1.54033130400762E-06,-61.0198631286621
1.54585220473883E-06,-60.7012939453125
1.55137310547004E-06,-60.3632278442383
1.55689400620125E-06,-60.0062294006348
1.56241490693246E-06,-59.6308631896973
1.56793580766367E-06,-59.2376976013184
1.57345670839488E-06,-58.8272972106934
1.57897760912609E-06,-58.4002265930176
1.5844985098573E-06,-57.9570541381836
1.59001941058851E-06,-57.4981422424316
1.59554031131972E-06,-57.006404876709
1.60106121205093E-06,-56.4758491516113
1.60658211278214E-06,-55.9138603210449
1.61210301351335E-06,-55.3278198242188
1.61762391424456E-06,-54.7251205444336
1.62314481497577E-06,-54.1131439208984
1.62866571570698E-06,-53.4992752075195
1.63418661643819E-06,-52.8908996582031
1.6397075171694E-06,-52.2953987121582
1.64522841790061E-06,-51.7201652526855
1.65074931863182E-06,-51.1725807189941
1.65627021936303E-06,-50.6599998474121
1.66179112009424E-06,-50.1666221618652
1.66731202082545E-06,-49.6767768859863
1.67283292155666E-06,-49.193431854248
1.67835382228787E-06,-48.7195663452148
1.68387472301908E-06,-48.2581520080566
1.68939562375029E-06,-47.8121643066406
1.6949165244815E-06,-47.3845748901367
1.70043742521271E-06,-46.9783554077148
1.70595832594392E-06,-46.5964851379395
1.71147922667513E-06,-46.2419357299805
1.71700012740634E-06,-45.9176788330078
1.72252102813755E-06,-45.6266937255859
1.72804192886876E-06,-45.3637771606445
1.73356282959997E-06,-45.1213569641113
1.73908373033118E-06,-44.9006881713867
1.74460463106239E-06,-44.7030487060547
1.7501255317936E-06,-44.529712677002
1.75564643252481E-06,-44.3819580078125
1.76116733325602E-06,-44.2610549926758
1.76668823398723E-06,-44.1682815551758
1.77220913471844E-06,-44.104907989502
1.77773003544965E-06,-44.0722160339355
1.78325093618086E-06,-44.0714721679688
1.78877183691207E-06,-44.1039581298828
1.79429273764328E-06,-44.1674842834473
1.79981363837449E-06,-44.2578239440918
1.8053345391057E-06,-44.3757934570313
1.81085543983691E-06,-44.5222778320313
1.81637634056812E-06,-44.6981506347656
1.82189724129933E-06,-44.9043006896973
1.82741814203054E-06,-45.1416053771973
1.83293904276175E-06,-45.4109420776367
1.83845994349296E-06,-45.7131958007813
1.84398084422417E-06,-46.0492401123047
1.84950174495538E-06,-46.4199600219727
1.85502264568659E-06,-46.8262367248535
1.8605435464178E-06,-47.2767028808594
1.86606444714901E-06,-47.7831573486328
1.87158534788022E-06,-48.3387908935547
1.87710624861143E-06,-48.9363212585449
1.88262714934264E-06,-49.5684661865234
1.88814805007385E-06,-50.2279472351074
1.89366895080506E-06,-50.9074783325195
1.89918985153627E-06,-51.5997848510742
1.90471075226748E-06,-52.2975769042969
1.91023165299869E-06,-52.993579864502
1.9157525537299E-06,-53.6805076599121
1.92127345446111E-06,-54.3510856628418
1.92679435519232E-06,-55.0135536193848
1.93231525592353E-06,-55.7006301879883
1.93783615665474E-06,-56.4073638916016
1.94335705738595E-06,-57.1268043518066
1.94887795811716E-06,-57.8520088195801
1.95439885884837E-06,-58.5760231018066
1.95991975957958E-06,-59.2918968200684
1.9654406603108E-06,-59.9926910400391
1.970961561042E-06,-60.6714515686035
1.97648246177322E-06,-61.3212280273438
1.98200336250443E-06,-61.9350776672363
1.98752426323564E-06,-62.5060501098633
1.99304516396685E-06,-63.0373992919922
1.99856606469806E-06,-63.5571594238281
2.00408696542927E-06,-64.0634460449219
2.00960786616048E-06,-64.5517196655273
2.01512876689169E-06,-65.0174255371094
2.0206496676229E-06,-65.4560317993164
2.02617056835411E-06,-65.8629913330078
2.03169146908532E-06,-66.2337646484375
2.03721236981653E-06,-66.5638046264648
2.04273327054774E-06,-66.8485641479492
2.04825417127895E-06,-67.0835113525391
2.05377507201016E-06,-67.2640991210938
2.05929597274137E-06,-67.3887252807617
2.06481687347258E-06,-67.4677581787109
2.07033777420379E-06,-67.503044128418
2.075858674935E-06,-67.4950942993164
2.08137957566621E-06,-67.4444122314453
2.08690047639742E-06,-67.3515167236328
2.09242137712863E-06,-67.216911315918
2.09794227785984E-06,-67.0411071777344
2.10346317859105E-06,-66.8246078491211
2.10898407932226E-06,-66.5679397583008
2.11450498005347E-06,-66.2715911865234
2.12002588078468E-06,-65.9360885620117
2.12554678151589E-06,-65.5527725219727
2.1310676822471E-06,-65.0757446289063
2.13658858297831E-06,-64.5135955810547
2.14210948370952E-06,-63.8840637207031
2.14763038444073E-06,-63.2049255371094
2.15315128517194E-06,-62.4939346313477
2.15867218590315E-06,-61.768856048584
2.16419308663436E-06,-61.0474433898926
2.16971398736557E-06,-60.3474655151367
2.17523488809678E-06,-59.6866760253906
2.18075578882799E-06,-59.0828399658203
2.1862766895592E-06,-58.5537147521973
2.19179759029041E-06,-58.109073638916
2.19731849102162E-06,-57.6982688903809
2.20283939175283E-06,-57.3112869262695
2.20836029248404E-06,-56.9509124755859
2.21388119321525E-06,-56.619930267334
2.21940209394646E-06,-56.3211250305176
2.22492299467767E-06,-56.0572776794434
2.23044389540888E-06,-55.831169128418
2.23596479614009E-06,-55.6455879211426
2.2414856968713E-06,-55.5033187866211
2.24700659760251E-06,-55.4071388244629
2.25252749833372E-06,-55.3598365783691
2.25804839906493E-06,-55.3610420227051
2.26356929979614E-06,-55.3797988891602
2.26909020052735E-06,-55.4151573181152
2.27461110125856E-06,-55.4767303466797
2.28013200198977E-06,-55.5741386413574
2.28565290272098E-06,-55.7169876098633
2.29117380345219E-06,-55.9149017333984
2.2966947041834E-06,-56.1774940490723
2.30221560491461E-06,-56.5143775939941
2.30773650564582E-06,-56.9351692199707
2.31325740637703E-06,-57.4494819641113
2.31877830710824E-06,-58.0669326782227
2.32429920783945E-06,-58.8042984008789
2.32982010857066E-06,-59.7789726257324
2.33534100930187E-06,-60.9869346618652
2.34086191003308E-06,-62.3726234436035
2.34638281076429E-06,-63.8804893493652
2.3519037114955E-06,-65.4549713134766
2.35742461222671E-06,-67.0405197143555
2.36294551295792E-06,-68.5815734863281
2.36846641368913E-06,-70.022575378418
2.37398731442034E-06,-71.307975769043
2.37950821515155E-06,-72.3822174072266
2.38502911588276E-06,-73.1897506713867
2.39055001661397E-06,-73.675407409668
2.39607091734518E-06,-73.8224639892578
2.40159181807639E-06,-73.6782302856445
2.4071127188076E-06,-73.2954483032227
2.41263361953881E-06,-72.7268676757813
2.41815452027002E-06,-72.0252380371094
2.42367542100123E-06,-71.2432861328125
2.42919632173244E-06,-70.4337768554688
2.43471722246365E-06,-69.6494369506836
2.44023812319486E-06,-68.9430313110352
2.44575902392607E-06,-68.3672790527344
2.45127992465728E-06,-67.9749450683594
2.45680082538849E-06,-67.8180465698242
2.4623217261197E-06,-67.8799591064453
2.46784262685091E-06,-68.1071319580078
2.47336352758212E-06,-68.4665069580078
2.47888442831333E-06,-68.9250335693359
2.48440532904454E-06,-69.4496536254883
2.48992622977575E-06,-70.0073165893555
2.49544713050696E-06,-70.5649642944336
2.50096803123817E-06,-71.0895462036133
2.50648893196938E-06,-71.5480041503906
2.51200983270059E-06,-71.9072875976563
2.5175307334318E-06,-72.1343383789063
2.52305163416301E-06,-72.1961975097656
2.52857253489422E-06,-72.1036682128906
2.53409343562543E-06,-71.8946914672852
2.53961433635665E-06,-71.5871353149414
2.54513523708785E-06,-71.198860168457
2.55065613781907E-06,-70.7477264404297
2.55617703855028E-06,-70.251594543457
2.56169793928149E-06,-69.7283248901367
2.5672188400127E-06,-69.1957855224609
2.57273974074391E-06,-68.6718368530273
2.57826064147512E-06,-68.1743392944336
2.58378154220633E-06,-67.7211608886719
2.58930244293754E-06,-67.3301544189453
2.59482334366875E-06,-66.9620971679688
2.60034424439996E-06,-66.5689163208008
2.60586514513117E-06,-66.16162109375
2.61138604586238E-06,-65.7512664794922
2.61690694659359E-06,-65.3489074707031
2.6224278473248E-06,-64.9655838012695
2.62794874805601E-06,-64.6123504638672
2.63346964878722E-06,-64.3002548217773
2.63899054951843E-06,-64.0403518676758
2.64451145024964E-06,-63.8436813354492
2.65003235098085E-06,-63.7212944030762
2.65555325171206E-06,-63.6842460632324
2.66107415244327E-06,-63.744987487793
2.66659505317448E-06,-63.9015655517578
2.67211595390569E-06,-64.140266418457
2.6776368546369E-06,-64.4473266601563
2.68315775536811E-06,-64.8089828491211
2.68867865609932E-06,-65.2114715576172
2.69419955683053E-06,-65.6410293579102
2.69972045756174E-06,-66.0838928222656
2.70524135829295E-06,-66.5262985229492
2.71076225902416E-06,-66.9544830322266
2.71628315975537E-06,-67.3546829223633
2.72180406048658E-06,-67.7131271362305
