Trace
Swept SA
A.19.55,N9020B
508 AB2 B25 B40 B85 DP2 DP4 EP2 FS1 FS2 MPB RTL ,01
Segment,0
Number of Points,81920
Sweep Time,0.0004096
Start Frequency,2400000000
Stop Frequency,2400000000
Average Count,0
Average Type,LogPower(Video)
RBW,3000000
RBW Filter,Gaussian
RBW Filter BW,3dB
VBW,3000000
Sweep Type,Swept
X Axis Scale,Lin
PreAmp State,Off
PreAmp Band,Low
Trigger Source,Ext1
Trigger Level,1.2
Trigger Slope,Positive
Trigger Delay,1E-06
Phase Noise Optimization,Fast
Swept If Gain,Low
FFT If Gain,Autorange
RF Coupling,AC
FFT Width,411900
Ext Ref,10000000
Input,RF
RF Calibrator,Off
Attenuation,6
Ref Level Offset,0
External Gain,0
Trace Type,Clearwrite
Detector,Normal
Trace Math,Off
Trace Math Oper1,Trace5
Trace Math Oper2,Trace6
Trace Math Offset,0
Normalize,Off
Trace Name,Trace1
X Axis Units,s
Y Axis Units,dBm
DATA
0,-66.8804626464844
5.00006103590132E-09,-67.0988006591797
1.00001220718026E-08,-67.1913299560547
1.50001831077039E-08,-67.1777572631836
2.00002441436053E-08,-67.077766418457
2.50003051795066E-08,-66.9110717773438
3.00003662154079E-08,-66.6973648071289
3.50004272513092E-08,-66.4563446044922
4.00004882872105E-08,-66.2077026367188
4.50005493231118E-08,-65.9711532592773
5.00006103590132E-08,-65.7663879394531
5.50006713949145E-08,-65.6130981445313
6.00007324308158E-08,-65.5242309570313
6.50007934667171E-08,-65.4279708862305
7.00008545026184E-08,-65.3055648803711
7.50009155385197E-08,-65.1643676757813
8.00009765744211E-08,-65.0117568969727
8.50010376103224E-08,-64.8550872802734
9.00010986462237E-08,-64.7017211914063
9.5001159682125E-08,-64.5590362548828
1.00001220718026E-07,-64.4343948364258
1.05001281753928E-07,-64.3351516723633
1.10001342789829E-07,-64.2686767578125
1.1500140382573E-07,-64.2423400878906
1.20001464861632E-07,-64.2635040283203
1.25001525897533E-07,-64.3395309448242
1.30001586933434E-07,-64.4895782470703
1.35001647969336E-07,-64.7183685302734
1.40001709005237E-07,-65.0115966796875
1.45001770041138E-07,-65.35498046875
1.50001831077039E-07,-65.7342071533203
1.55001892112941E-07,-66.1349868774414
1.60001953148842E-07,-66.5430297851563
1.65002014184743E-07,-66.9440307617188
1.70002075220645E-07,-67.3236923217773
1.75002136256546E-07,-67.667724609375
1.80002197292447E-07,-67.9618301391602
1.85002258328349E-07,-68.1917037963867
1.9000231936425E-07,-68.3430633544922
1.95002380400151E-07,-68.407470703125
2.00002441436053E-07,-68.4007186889648
2.05002502471954E-07,-68.3333892822266
2.10002563507855E-07,-68.2150421142578
2.15002624543757E-07,-68.0552215576172
2.20002685579658E-07,-67.8634796142578
2.25002746615559E-07,-67.6493606567383
2.30002807651461E-07,-67.4224319458008
2.35002868687362E-07,-67.1922378540039
2.40002929723263E-07,-66.9683227539063
2.45002990759165E-07,-66.76025390625
2.50003051795066E-07,-66.5775680541992
2.55003112830967E-07,-66.4298248291016
2.60003173866868E-07,-66.3245620727539
2.6500323490277E-07,-66.2418212890625
2.70003295938671E-07,-66.1726989746094
2.75003356974572E-07,-66.1155242919922
2.80003418010474E-07,-66.0686111450195
2.85003479046375E-07,-66.0303039550781
2.90003540082276E-07,-65.998908996582
2.95003601118178E-07,-65.9727630615234
3.00003662154079E-07,-65.9501800537109
3.0500372318998E-07,-65.9294967651367
3.10003784225882E-07,-65.9090270996094
3.15003845261783E-07,-65.8871002197266
3.20003906297684E-07,-65.8620452880859
3.25003967333586E-07,-65.8321838378906
3.30004028369487E-07,-65.8030853271484
3.35004089405388E-07,-65.780387878418
3.4000415044129E-07,-65.7625122070313
3.45004211477191E-07,-65.7478790283203
3.50004272513092E-07,-65.7349166870117
3.55004333548993E-07,-65.7220306396484
3.60004394584895E-07,-65.7076568603516
3.65004455620796E-07,-65.6902160644531
3.70004516656697E-07,-65.6681213378906
3.75004577692599E-07,-65.6398010253906
3.800046387285E-07,-65.6036758422852
3.85004699764401E-07,-65.5581588745117
3.90004760800303E-07,-65.5016860961914
3.95004821836204E-07,-65.4297103881836
4.00004882872105E-07,-65.3340301513672
4.05004943908007E-07,-65.2186965942383
4.10005004943908E-07,-65.0886001586914
4.15005065979809E-07,-64.9486389160156
4.20005127015711E-07,-64.8037109375
4.25005188051612E-07,-64.6587219238281
4.30005249087513E-07,-64.5185699462891
4.35005310123415E-07,-64.3881454467773
4.40005371159316E-07,-64.2723617553711
4.45005432195217E-07,-64.1761016845703
4.50005493231119E-07,-64.1042785644531
4.5500555426702E-07,-64.0617828369141
4.60005615302921E-07,-64.0523681640625
4.65005676338822E-07,-64.0644226074219
4.70005737374724E-07,-64.0933609008789
4.75005798410625E-07,-64.1388092041016
4.80005859446526E-07,-64.2004013061523
4.85005920482428E-07,-64.2777481079102
4.90005981518329E-07,-64.370491027832
4.9500604255423E-07,-64.4782409667969
5.00006103590132E-07,-64.6006393432617
5.05006164626033E-07,-64.7373046875
5.10006225661934E-07,-64.8878555297852
5.15006286697836E-07,-65.0519332885742
5.20006347733737E-07,-65.2291564941406
5.25006408769638E-07,-65.4191513061523
5.3000646980554E-07,-65.6531753540039
5.35006530841441E-07,-65.9527740478516
5.40006591877342E-07,-66.3029937744141
5.45006652913243E-07,-66.6888656616211
5.50006713949145E-07,-67.0954513549805
5.55006774985046E-07,-67.5077819824219
5.60006836020948E-07,-67.9109115600586
5.65006897056849E-07,-68.2898864746094
5.7000695809275E-07,-68.6297454833984
5.75007019128651E-07,-68.9155349731445
5.80007080164553E-07,-69.1323013305664
5.85007141200454E-07,-69.2650833129883
5.90007202236355E-07,-69.2989349365234
5.95007263272257E-07,-69.217658996582
6.00007324308158E-07,-69.0174255371094
6.05007385344059E-07,-68.7151870727539
6.10007446379961E-07,-68.3287963867188
6.15007507415862E-07,-67.876106262207
6.20007568451763E-07,-67.3749847412109
6.25007629487665E-07,-66.8432769775391
6.30007690523566E-07,-66.2988433837891
6.35007751559467E-07,-65.7595443725586
6.40007812595369E-07,-65.2432327270508
6.4500787363127E-07,-64.7677688598633
6.50007934667171E-07,-64.3510131835938
6.55007995703072E-07,-64.0108108520508
6.60008056738974E-07,-63.761058807373
6.65008117774875E-07,-63.5620002746582
6.70008178810776E-07,-63.3969650268555
6.75008239846678E-07,-63.2636871337891
6.80008300882579E-07,-63.1598892211914
6.8500836191848E-07,-63.0833015441895
6.90008422954382E-07,-63.0316505432129
6.95008483990283E-07,-63.0026702880859
7.00008545026184E-07,-62.994083404541
7.05008606062086E-07,-63.0036239624023
7.10008667097987E-07,-63.0290145874023
7.15008728133888E-07,-63.0679893493652
7.2000878916979E-07,-63.1182746887207
7.25008850205691E-07,-63.1775970458984
7.30008911241592E-07,-63.2662734985352
7.35008972277494E-07,-63.4005737304688
7.40009033313395E-07,-63.5721435546875
7.45009094349296E-07,-63.7726364135742
7.50009155385198E-07,-63.9937019348145
7.55009216421099E-07,-64.2269897460938
7.60009277457E-07,-64.4641571044922
7.65009338492901E-07,-64.6968536376953
7.70009399528803E-07,-64.9167175292969
7.75009460564704E-07,-65.1154174804688
7.80009521600605E-07,-65.2845916748047
7.85009582636507E-07,-65.415901184082
7.90009643672408E-07,-65.5009841918945
7.95009704708309E-07,-65.5351715087891
8.00009765744211E-07,-65.5283737182617
8.05009826780112E-07,-65.4865570068359
8.10009887816013E-07,-65.4150543212891
8.15009948851915E-07,-65.3191680908203
8.20010009887816E-07,-65.204216003418
8.25010070923717E-07,-65.0755233764648
8.30010131959619E-07,-64.9383926391602
8.3501019299552E-07,-64.7981567382813
8.40010254031421E-07,-64.6601104736328
8.45010315067323E-07,-64.5295867919922
8.50010376103224E-07,-64.4118881225586
8.55010437139125E-07,-64.3123474121094
8.60010498175026E-07,-64.2312393188477
8.65010559210928E-07,-64.1115493774414
8.70010620246829E-07,-63.9477119445801
8.7501068128273E-07,-63.7550163269043
8.80010742318632E-07,-63.5487251281738
8.85010803354533E-07,-63.3441200256348
8.90010864390434E-07,-63.1564750671387
8.95010925426336E-07,-63.0010643005371
9.00010986462237E-07,-62.8931617736816
9.05011047498138E-07,-62.8480453491211
9.1001110853404E-07,-62.8809852600098
9.15011169569941E-07,-63.0072631835938
9.20011230605842E-07,-63.2421493530273
9.25011291641744E-07,-63.6009178161621
9.30011352677645E-07,-64.1478881835938
9.35011413713546E-07,-64.9094543457031
9.40011474749448E-07,-65.843994140625
9.45011535785349E-07,-66.909912109375
9.5001159682125E-07,-68.0655975341797
9.55011657857151E-07,-69.2694320678711
9.60011718893053E-07,-70.4798126220703
9.65011779928954E-07,-71.6551208496094
9.70011840964855E-07,-72.7537612915039
9.75011902000757E-07,-73.7341232299805
9.80011963036658E-07,-74.5545806884766
9.85012024072559E-07,-75.1735458374023
9.90012085108461E-07,-75.5493927001953
9.95012146144362E-07,-75.6541290283203
1.00001220718026E-06,-75.5242080688477
1.00501226821616E-06,-75.1931762695313
1.01001232925207E-06,-74.6925048828125
1.01501239028797E-06,-74.0536880493164
1.02001245132387E-06,-73.3082046508789
1.02501251235977E-06,-72.4875411987305
1.03001257339567E-06,-71.6231842041016
1.03501263443157E-06,-70.7466201782227
1.04001269546747E-06,-69.8893280029297
1.04501275650338E-06,-69.0828018188477
1.05001281753928E-06,-68.358512878418
1.05501287857518E-06,-67.7479553222656
1.06001293961108E-06,-67.275032043457
1.06501300064698E-06,-66.8628921508789
1.07001306168288E-06,-66.482048034668
1.07501312271878E-06,-66.1308898925781
1.08001318375468E-06,-65.8077926635742
1.08501324479059E-06,-65.5111465454102
1.09001330582649E-06,-65.2393417358398
1.09501336686239E-06,-64.9907531738281
1.10001342789829E-06,-64.7637710571289
1.10501348893419E-06,-64.556770324707
1.11001354997009E-06,-64.3681488037109
1.11501361100599E-06,-64.1962890625
1.1200136720419E-06,-64.0395584106445
1.1250137330778E-06,-63.8963623046875
1.1300137941137E-06,-63.7797203063965
1.1350138551496E-06,-63.7002410888672
1.1400139161855E-06,-63.6526794433594
1.1450139772214E-06,-63.6317863464355
1.1500140382573E-06,-63.6323165893555
1.1550140992932E-06,-63.6490249633789
1.16001416032911E-06,-63.6766586303711
1.16501422136501E-06,-63.7099761962891
1.17001428240091E-06,-63.7437286376953
1.17501434343681E-06,-63.7726707458496
1.18001440447271E-06,-63.7915496826172
1.18501446550861E-06,-63.7951278686523
1.19001452654451E-06,-63.778148651123
1.19501458758041E-06,-63.7380561828613
1.20001464861632E-06,-63.6821174621582
1.20501470965222E-06,-63.6137886047363
1.21001477068812E-06,-63.5360107421875
1.21501483172402E-06,-63.451717376709
1.22001489275992E-06,-63.3638496398926
1.22501495379582E-06,-63.2753410339355
1.23001501483172E-06,-63.1891326904297
1.23501507586763E-06,-63.1081619262695
1.24001513690353E-06,-63.0353622436523
1.24501519793943E-06,-62.9736709594727
1.25001525897533E-06,-62.9260292053223
1.25501532001123E-06,-62.8953742980957
1.26001538104713E-06,-62.8788909912109
1.26501544208303E-06,-62.8100395202637
1.27001550311893E-06,-62.6852874755859
1.27501556415484E-06,-62.5254440307617
1.28001562519074E-06,-62.3513107299805
1.28501568622664E-06,-62.1836929321289
1.29001574726254E-06,-62.0433921813965
1.29501580829844E-06,-61.9512138366699
1.30001586933434E-06,-61.9279594421387
1.30501593037024E-06,-61.9944381713867
1.31001599140614E-06,-62.1714515686035
1.31501605244205E-06,-62.4798011779785
1.32001611347795E-06,-62.9402923583984
1.32501617451385E-06,-63.5737266540527
1.33001623554975E-06,-64.4824676513672
1.33501629658565E-06,-65.7124481201172
1.34001635762155E-06,-67.1998062133789
1.34501641865745E-06,-68.8806838989258
1.35001647969336E-06,-70.6912231445313
1.35501654072926E-06,-72.5675811767578
1.36001660176516E-06,-74.4458999633789
1.36501666280106E-06,-76.2623138427734
1.37001672383696E-06,-77.9529800415039
1.37501678487286E-06,-79.4540405273438
1.38001684590876E-06,-80.7016372680664
1.38501690694466E-06,-81.6319122314453
1.39001696798057E-06,-82.1810150146484
1.39501702901647E-06,-82.3021697998047
1.40001709005237E-06,-82.0408630371094
1.40501715108827E-06,-81.4515762329102
1.41001721212417E-06,-80.586669921875
1.41501727316007E-06,-79.4985275268555
1.42001733419597E-06,-78.239501953125
1.42501739523188E-06,-76.8619766235352
1.43001745626778E-06,-75.4183120727539
1.43501751730368E-06,-73.9608764648438
1.44001757833958E-06,-72.5420379638672
1.44501763937548E-06,-71.2141647338867
1.45001770041138E-06,-70.0296325683594
1.45501776144728E-06,-69.0408096313477
1.46001782248318E-06,-68.2891845703125
1.46501788351909E-06,-67.6674270629883
1.47001794455499E-06,-67.1267547607422
1.47501800559089E-06,-66.6572570800781
1.48001806662679E-06,-66.2490158081055
1.48501812766269E-06,-65.8921127319336
1.49001818869859E-06,-65.5766296386719
1.49501824973449E-06,-65.2926483154297
1.5000183107704E-06,-65.0302581787109
1.5050183718063E-06,-64.7795333862305
1.5100184328422E-06,-64.5305633544922
1.5150184938781E-06,-64.2734298706055
1.520018554914E-06,-63.9982109069824
1.5250186159499E-06,-63.6949920654297
1.5300186769858E-06,-63.3888168334961
1.5350187380217E-06,-63.1076850891113
1.54001879905761E-06,-62.8461112976074
1.54501886009351E-06,-62.5986213684082
1.55001892112941E-06,-62.3597259521484
1.55501898216531E-06,-62.1239433288574
1.56001904320121E-06,-61.8857917785645
1.56501910423711E-06,-61.6397895812988
1.57001916527301E-06,-61.3804550170898
1.57501922630891E-06,-61.1023063659668
1.58001928734482E-06,-60.7998580932617
1.58501934838072E-06,-60.4676322937012
1.59001940941662E-06,-60.1001434326172
1.59501947045252E-06,-59.6928558349609
1.60001953148842E-06,-59.2482376098633
1.60501959252432E-06,-58.7713851928711
1.61001965356022E-06,-58.2673492431641
1.61501971459613E-06,-57.7411766052246
1.62001977563203E-06,-57.1979217529297
1.62501983666793E-06,-56.6426315307617
1.63001989770383E-06,-56.0803604125977
1.63501995873973E-06,-55.5161590576172
1.64002001977563E-06,-54.9550743103027
1.64502008081153E-06,-54.4021606445313
1.65002014184743E-06,-53.8624649047852
1.65502020288334E-06,-53.3410453796387
1.66002026391924E-06,-52.8409690856934
1.66502032495514E-06,-52.3409996032715
1.67002038599104E-06,-51.8362846374512
1.67502044702694E-06,-51.3297119140625
1.68002050806284E-06,-50.8241729736328
1.68502056909874E-06,-50.3225555419922
1.69002063013465E-06,-49.8277473449707
1.69502069117055E-06,-49.3426361083984
1.70002075220645E-06,-48.8701095581055
1.70502081324235E-06,-48.4130554199219
1.71002087427825E-06,-47.9743614196777
1.71502093531415E-06,-47.5569190979004
1.72002099635005E-06,-47.1636123657227
1.72502105738595E-06,-46.7973289489746
1.73002111842186E-06,-46.4521217346191
1.73502117945776E-06,-46.120735168457
1.74002124049366E-06,-45.8041191101074
1.74502130152956E-06,-45.5032119750977
1.75002136256546E-06,-45.2189636230469
1.75502142360136E-06,-44.9523162841797
1.76002148463726E-06,-44.7042198181152
1.76502154567316E-06,-44.4756126403809
1.77002160670907E-06,-44.2674446105957
1.77502166774497E-06,-44.0806617736816
1.78002172878087E-06,-43.916202545166
1.78502178981677E-06,-43.7750205993652
1.79002185085267E-06,-43.6580543518066
1.79502191188857E-06,-43.5648422241211
1.80002197292447E-06,-43.4915351867676
1.80502203396038E-06,-43.4382400512695
1.81002209499628E-06,-43.4054183959961
1.81502215603218E-06,-43.3935165405273
1.82002221706808E-06,-43.4029960632324
1.82502227810398E-06,-43.4343070983887
1.83002233913988E-06,-43.487907409668
1.83502240017578E-06,-43.5642509460449
1.84002246121168E-06,-43.6637954711914
1.84502252224759E-06,-43.7869911193848
1.85002258328349E-06,-43.9342918395996
1.85502264431939E-06,-44.1061592102051
1.86002270535529E-06,-44.3032646179199
1.86502276639119E-06,-44.5284233093262
1.87002282742709E-06,-44.7812538146973
1.87502288846299E-06,-45.0603561401367
1.8800229494989E-06,-45.364315032959
1.8850230105348E-06,-45.6917343139648
1.8900230715707E-06,-46.0411987304688
1.8950231326066E-06,-46.4113082885742
1.9000231936425E-06,-46.8006553649902
1.9050232546784E-06,-47.2078323364258
1.9100233157143E-06,-47.6314315795898
1.9150233767502E-06,-48.0700454711914
1.92002343778611E-06,-48.522274017334
1.92502349882201E-06,-48.9867057800293
1.93002355985791E-06,-49.4814262390137
1.93502362089381E-06,-50.0202293395996
1.94002368192971E-06,-50.5952606201172
1.94502374296561E-06,-51.1986770629883
1.95002380400151E-06,-51.8226318359375
1.95502386503741E-06,-52.4592742919922
1.96002392607332E-06,-53.100757598877
1.96502398710922E-06,-53.7392349243164
1.97002404814512E-06,-54.3668594360352
1.97502410918102E-06,-54.9757804870605
1.98002417021692E-06,-55.5581512451172
1.98502423125282E-06,-56.1061248779297
1.99002429228872E-06,-56.6118507385254
1.99502435332463E-06,-57.073616027832
2.00002441436053E-06,-57.5081024169922
2.00502447539643E-06,-57.9188003540039
2.01002453643233E-06,-58.307861328125
2.01502459746823E-06,-58.6774215698242
2.02002465850413E-06,-59.0296287536621
2.02502471954003E-06,-59.366626739502
2.03002478057593E-06,-59.690559387207
2.03502484161184E-06,-60.0035705566406
2.04002490264774E-06,-60.307804107666
2.04502496368364E-06,-60.6054077148438
2.05002502471954E-06,-60.8985176086426
2.05502508575544E-06,-61.189281463623
2.06002514679134E-06,-61.4789390563965
2.06502520782724E-06,-61.757640838623
2.07002526886315E-06,-62.023323059082
2.07502532989905E-06,-62.2775001525879
2.08002539093495E-06,-62.5216903686523
2.08502545197085E-06,-62.7574119567871
2.09002551300675E-06,-62.9861793518066
2.09502557404265E-06,-63.2095146179199
2.10002563507855E-06,-63.4289283752441
2.10502569611445E-06,-63.6459426879883
2.11002575715036E-06,-63.8620719909668
2.11502581818626E-06,-64.0788345336914
2.12002587922216E-06,-64.2977447509766
2.12502594025806E-06,-64.5203247070313
2.13002600129396E-06,-64.7679443359375
2.13502606232986E-06,-65.0533599853516
2.14002612336576E-06,-65.3651428222656
2.14502618440166E-06,-65.6918640136719
2.15002624543757E-06,-66.022102355957
2.15502630647347E-06,-66.3444442749023
2.16002636750937E-06,-66.6474533081055
2.16502642854527E-06,-66.9197006225586
2.17002648958117E-06,-67.1497802734375
2.17502655061707E-06,-67.3262557983398
2.18002661165297E-06,-67.4377059936523
2.18502667268888E-06,-67.4727020263672
2.19002673372478E-06,-67.4198226928711
2.19502679476068E-06,-67.2627944946289
2.20002685579658E-06,-66.9879302978516
2.20502691683248E-06,-66.6112899780273
2.21002697786838E-06,-66.1506652832031
2.21502703890428E-06,-65.6238632202148
2.22002709994018E-06,-65.0486831665039
2.22502716097609E-06,-64.4429244995117
2.23002722201199E-06,-63.8244018554688
2.23502728304789E-06,-63.2109031677246
2.24002734408379E-06,-62.6202392578125
2.24502740511969E-06,-62.0702095031738
2.25002746615559E-06,-61.5786170959473
2.25502752719149E-06,-61.1632652282715
2.2600275882274E-06,-60.8364295959473
2.2650276492633E-06,-60.5401039123535
2.2700277102992E-06,-60.2574234008789
2.2750277713351E-06,-59.9926147460938
2.280027832371E-06,-59.7499046325684
2.2850278934069E-06,-59.5335083007813
2.2900279544428E-06,-59.3476600646973
2.2950280154787E-06,-59.1965751647949
2.30002807651461E-06,-59.0844841003418
2.30502813755051E-06,-59.0156021118164
2.31002819858641E-06,-58.9941635131836
2.31502825962231E-06,-59.0243835449219
2.32002832065821E-06,-59.1104927062988
2.32502838169411E-06,-59.2567100524902
2.33002844273001E-06,-59.4941520690918
2.33502850376592E-06,-59.8391227722168
2.34002856480182E-06,-60.2736358642578
2.34502862583772E-06,-60.7796936035156
2.35002868687362E-06,-61.3393096923828
2.35502874790952E-06,-61.9344940185547
2.36002880894542E-06,-62.5472526550293
2.36502886998132E-06,-63.1595916748047
2.37002893101722E-06,-63.7535285949707
2.37502899205313E-06,-64.3110656738281
2.38002905308903E-06,-64.814208984375
2.38502911412493E-06,-65.2449798583984
2.39002917516083E-06,-65.5853729248047
2.39502923619673E-06,-65.831672668457
2.40002929723263E-06,-66.0227432250977
2.40502935826853E-06,-66.1664199829102
2.41002941930443E-06,-66.2673797607422
2.41502948034034E-06,-66.3302993774414
2.42002954137624E-06,-66.35986328125
2.42502960241214E-06,-66.3607406616211
2.43002966344804E-06,-66.3376235961914
2.43502972448394E-06,-66.2951812744141
2.44002978551984E-06,-66.2381057739258
2.44502984655574E-06,-66.1710662841797
2.45002990759165E-06,-66.0987396240234
2.45502996862755E-06,-66.0258178710938
2.46003002966345E-06,-65.9519195556641
2.46503009069935E-06,-65.8195037841797
