Trace
Swept SA
A.19.55,N9020B
508 AB2 B25 B40 B85 DP2 DP4 EP2 FS1 FS2 MPB RTL ,01
Segment,0
Number of Points,81920
Sweep Time,0.000452266667
Start Frequency,2400000000
Stop Frequency,2400000000
Average Count,0
Average Type,LogPower(Video)
RBW,3000000
RBW Filter,Gaussian
RBW Filter BW,3dB
VBW,3000000
Sweep Type,Swept
X Axis Scale,Lin
PreAmp State,Off
PreAmp Band,Low
Trigger Source,Ext1
Trigger Level,1.2
Trigger Slope,Positive
Trigger Delay,1E-06
Phase Noise Optimization,Fast
Swept If Gain,Low
FFT If Gain,Autorange
RF Coupling,AC
FFT Width,411900
Ext Ref,10000000
Input,RF
RF Calibrator,Off
Attenuation,6
Ref Level Offset,0
External Gain,0
Trace Type,Clearwrite
Detector,Normal
Trace Math,Off
Trace Math Oper1,Trace5
Trace Math Oper2,Trace6
Trace Math Offset,0
Normalize,Off
Trace Name,Trace1
X Axis Units,s
Y Axis Units,dBm
DATA
0,-60.6055755615234
5.5209007312101E-09,-61.1579360961914
1.10418014624202E-08,-61.7248306274414
1.65627021936303E-08,-62.292064666748
2.20836029248404E-08,-62.8454322814941
2.76045036560505E-08,-63.3707275390625
3.31254043872606E-08,-63.8537559509277
3.86463051184707E-08,-64.2803115844727
4.41672058496808E-08,-64.6361923217773
4.96881065808909E-08,-64.9071960449219
5.5209007312101E-08,-65.0791168212891
6.07299080433111E-08,-65.1427459716797
6.62508087745212E-08,-65.1078567504883
7.17717095057313E-08,-64.9871597290039
7.72926102369414E-08,-64.7933120727539
8.28135109681515E-08,-64.5389862060547
8.83344116993616E-08,-64.2368240356445
9.38553124305717E-08,-63.8994941711426
9.93762131617818E-08,-63.5396461486816
1.04897113892992E-07,-63.1699447631836
1.10418014624202E-07,-62.8030471801758
1.15938915355412E-07,-62.4516105651855
1.21459816086622E-07,-62.128288269043
1.26980716817832E-07,-61.8233680725098
1.32501617549042E-07,-61.495246887207
1.38022518280252E-07,-61.1475219726563
1.43543419011463E-07,-60.7856559753418
1.49064319742673E-07,-60.4151077270508
1.54585220473883E-07,-60.0413398742676
1.60106121205093E-07,-59.669807434082
1.65627021936303E-07,-59.3059692382813
1.71147922667513E-07,-58.9552917480469
1.76668823398723E-07,-58.6232261657715
1.82189724129933E-07,-58.3152389526367
1.87710624861143E-07,-58.0367813110352
1.93231525592353E-07,-57.7856369018555
1.98752426323564E-07,-57.5432891845703
2.04273327054774E-07,-57.3105239868164
2.09794227785984E-07,-57.0895309448242
2.15315128517194E-07,-56.8824920654297
2.20836029248404E-07,-56.6915893554688
2.26356929979614E-07,-56.5190048217773
2.31877830710824E-07,-56.3669166564941
2.37398731442034E-07,-56.2375144958496
2.42919632173244E-07,-56.1329765319824
2.48440532904454E-07,-56.0554885864258
2.53961433635664E-07,-56.0072326660156
2.59482334366875E-07,-55.9874572753906
2.65003235098085E-07,-55.9869689941406
2.70524135829295E-07,-56.0062408447266
2.76045036560505E-07,-56.0468101501465
2.81565937291715E-07,-56.1102104187012
2.87086838022925E-07,-56.1979827880859
2.92607738754135E-07,-56.3116607666016
2.98128639485345E-07,-56.4527816772461
3.03649540216555E-07,-56.6228828430176
3.09170440947765E-07,-56.8234939575195
3.14691341678976E-07,-57.0561599731445
3.20212242410186E-07,-57.3224143981934
3.25733143141396E-07,-57.6201286315918
3.31254043872606E-07,-57.933780670166
3.36774944603816E-07,-58.2654495239258
3.42295845335026E-07,-58.6198196411133
3.47816746066236E-07,-59.0015830993652
3.53337646797446E-07,-59.4154281616211
3.58858547528656E-07,-59.8660507202148
3.64379448259866E-07,-60.3581390380859
3.69900348991077E-07,-60.8963851928711
3.75421249722287E-07,-61.4854774475098
3.80942150453497E-07,-62.1301078796387
3.86463051184707E-07,-62.8349647521973
3.91983951915917E-07,-63.6205139160156
3.97504852647127E-07,-64.5809097290039
4.03025753378337E-07,-65.6963806152344
4.08546654109547E-07,-66.9251861572266
4.14067554840757E-07,-68.2256011962891
4.19588455571967E-07,-69.5559005737305
4.25109356303178E-07,-70.8743591308594
4.30630257034388E-07,-72.1392364501953
4.36151157765598E-07,-73.3088150024414
4.41672058496808E-07,-74.3413696289063
4.47192959228018E-07,-75.1951599121094
4.52713859959228E-07,-75.8284683227539
4.58234760690438E-07,-76.2014923095703
4.63755661421648E-07,-76.3166580200195
4.69276562152858E-07,-76.2118453979492
4.74797462884068E-07,-75.92529296875
4.80318363615278E-07,-75.4952392578125
4.85839264346489E-07,-74.9599304199219
4.91360165077699E-07,-74.3576049804688
4.96881065808909E-07,-73.7265167236328
5.02401966540119E-07,-73.1049041748047
5.07922867271329E-07,-72.531005859375
5.13443768002539E-07,-72.0430755615234
5.18964668733749E-07,-71.6793441772461
5.24485569464959E-07,-71.4709930419922
5.30006470196169E-07,-71.3448638916016
5.3552737092738E-07,-71.2673568725586
5.4104827165859E-07,-71.2332458496094
5.465691723898E-07,-71.2372970581055
5.5209007312101E-07,-71.274299621582
5.5761097385222E-07,-71.3390197753906
5.6313187458343E-07,-71.4262390136719
5.6865277531464E-07,-71.5307388305664
5.7417367604585E-07,-71.6472778320313
5.7969457677706E-07,-71.7706451416016
5.8521547750827E-07,-71.8956146240234
5.90736378239481E-07,-72.0194473266602
5.96257278970691E-07,-72.19091796875
6.01778179701901E-07,-72.4190216064453
6.07299080433111E-07,-72.688232421875
6.12819981164321E-07,-72.9830169677734
6.18340881895531E-07,-73.287841796875
6.23861782626741E-07,-73.5871810913086
6.29382683357951E-07,-73.8655014038086
6.34903584089161E-07,-74.1072769165039
6.40424484820371E-07,-74.2969741821289
6.45945385551581E-07,-74.419059753418
6.51466286282792E-07,-74.4580001831055
6.56987187014002E-07,-74.3982086181641
6.62508087745212E-07,-74.2285079956055
6.68028988476422E-07,-73.9606628417969
6.73549889207632E-07,-73.6118621826172
6.79070789938842E-07,-73.1993103027344
6.84591690670052E-07,-72.7401962280273
6.90112591401262E-07,-72.251708984375
6.95633492132472E-07,-71.7510452270508
7.01154392863682E-07,-71.2554016113281
7.06675293594893E-07,-70.7819595336914
7.12196194326103E-07,-70.3479309082031
7.17717095057313E-07,-69.9704895019531
7.23237995788523E-07,-69.6665878295898
7.28758896519733E-07,-69.4154968261719
7.34279797250943E-07,-69.1932601928711
7.39800697982153E-07,-68.9969100952148
7.45321598713363E-07,-68.8234786987305
7.50842499444573E-07,-68.6699981689453
7.56363400175783E-07,-68.5335006713867
7.61884300906994E-07,-68.4110107421875
7.67405201638204E-07,-68.2995681762695
7.72926102369414E-07,-68.1962051391602
7.78447003100624E-07,-68.0979385375977
7.83967903831834E-07,-68.0018157958984
7.89488804563044E-07,-67.9048614501953
7.95009705294254E-07,-67.8147735595703
8.00530606025464E-07,-67.7391128540039
8.06051506756674E-07,-67.6757965087891
8.11572407487884E-07,-67.6227645874023
8.17093308219094E-07,-67.5779495239258
8.22614208950305E-07,-67.5392837524414
8.28135109681515E-07,-67.5047073364258
8.33656010412725E-07,-67.4721527099609
8.39176911143935E-07,-67.4395523071289
8.44697811875145E-07,-67.4048385620117
8.50218712606355E-07,-67.3659515380859
8.55739613337565E-07,-67.3208160400391
8.61260514068775E-07,-67.2631454467773
8.66781414799985E-07,-67.1900634765625
8.72302315531195E-07,-67.1065216064453
8.77823216262406E-07,-67.0174865722656
8.83344116993616E-07,-66.9279327392578
8.88865017724826E-07,-66.8428421020508
8.94385918456036E-07,-66.7671737670898
8.99906819187246E-07,-66.7059020996094
9.05427719918456E-07,-66.6640014648438
9.10948620649666E-07,-66.6464538574219
9.16469521380876E-07,-66.6582107543945
9.21990422112086E-07,-66.7042694091797
9.27511322843296E-07,-66.7767181396484
9.33032223574507E-07,-66.8586349487305
9.38553124305717E-07,-66.953125
9.44074025036927E-07,-67.063591003418
9.49594925768137E-07,-67.1934204101563
9.55115826499347E-07,-67.3460159301758
9.60636727230557E-07,-67.5247802734375
9.66157627961767E-07,-67.7331085205078
9.71678528692977E-07,-67.9743957519531
9.77199429424187E-07,-68.2520523071289
9.82720330155397E-07,-68.569465637207
9.88241230886608E-07,-68.9300308227539
9.93762131617818E-07,-69.3680953979492
9.99283032349028E-07,-69.9346084594727
1.00480393308024E-06,-70.6018600463867
1.01032483381145E-06,-71.3397674560547
1.01584573454266E-06,-72.1182632446289
1.02136663527387E-06,-72.9072570800781
1.02688753600508E-06,-73.6766738891602
1.03240843673629E-06,-74.3964462280273
1.0379293374675E-06,-75.0364990234375
1.04345023819871E-06,-75.5667419433594
1.04897113892992E-06,-75.9571075439453
1.05449203966113E-06,-76.1775131225586
1.06001294039234E-06,-76.2028884887695
1.06553384112355E-06,-76.0457077026367
1.07105474185476E-06,-75.7347106933594
1.07657564258597E-06,-75.2986373901367
1.08209654331718E-06,-74.766227722168
1.08761744404839E-06,-74.1662139892578
1.0931383447796E-06,-73.52734375
1.09865924551081E-06,-72.8783569335938
1.10418014624202E-06,-72.2479858398438
1.10970104697323E-06,-71.6649780273438
1.11522194770444E-06,-71.1580657958984
1.12074284843565E-06,-70.755989074707
1.12626374916686E-06,-70.4658966064453
1.13178464989807E-06,-70.224983215332
1.13730555062928E-06,-70.022819519043
1.14282645136049E-06,-69.8549575805664
1.1483473520917E-06,-69.7170028686523
1.15386825282291E-06,-69.6045150756836
1.15938915355412E-06,-69.5130844116211
1.16491005428533E-06,-69.4382934570313
1.17043095501654E-06,-69.3757095336914
1.17595185574775E-06,-69.3209228515625
1.18147275647896E-06,-69.2695159912109
1.18699365721017E-06,-69.2170562744141
1.19251455794138E-06,-69.1652069091797
1.19803545867259E-06,-69.137565612793
1.2035563594038E-06,-69.132698059082
1.20907726013501E-06,-69.1455764770508
1.21459816086622E-06,-69.1711654663086
1.22011906159743E-06,-69.2044448852539
1.22563996232864E-06,-69.2403869628906
1.23116086305985E-06,-69.2739639282227
1.23668176379106E-06,-69.3001480102539
1.24220266452227E-06,-69.3139038085938
1.24772356525348E-06,-69.3102188110352
1.25324446598469E-06,-69.284049987793
1.2587653667159E-06,-69.2298202514648
1.26428626744711E-06,-69.1432723999023
1.26980716817832E-06,-69.0299682617188
1.27532806890953E-06,-68.8965911865234
1.28084896964074E-06,-68.7498168945313
1.28636987037195E-06,-68.596321105957
1.29189077110316E-06,-68.4427795410156
1.29741167183437E-06,-68.2958755493164
1.30293257256558E-06,-68.1622848510742
1.30845347329679E-06,-68.0486907958984
1.313974374028E-06,-67.9617538452148
1.31949527475921E-06,-67.9081726074219
1.32501617549042E-06,-67.8867263793945
1.33053707622163E-06,-67.8393402099609
1.33605797695284E-06,-67.7662124633789
1.34157887768405E-06,-67.683723449707
1.34709977841526E-06,-67.6082916259766
1.35262067914647E-06,-67.5562973022461
1.35814157987768E-06,-67.5441513061523
1.36366248060889E-06,-67.5882415771484
1.3691833813401E-06,-67.7049713134766
1.37470428207131E-06,-67.9107437133789
1.38022518280252E-06,-68.2219543457031
1.38574608353373E-06,-68.6549911499023
1.39126698426494E-06,-69.2358703613281
1.39678788499615E-06,-70.0787048339844
1.40230878572736E-06,-71.1654510498047
1.40782968645858E-06,-72.4362106323242
1.41335058718979E-06,-73.8310852050781
1.418871487921E-06,-75.2901840209961
1.42439238865221E-06,-76.7536087036133
1.42991328938342E-06,-78.1614608764648
1.43543419011463E-06,-79.4538497924805
1.44095509084584E-06,-80.5708770751953
1.44647599157705E-06,-81.4526443481445
1.45199689230826E-06,-82.0392532348633
1.45751779303947E-06,-82.272834777832
1.46303869377068E-06,-82.1621627807617
1.46855959450189E-06,-81.7610702514648
1.4740804952331E-06,-81.1174850463867
1.47960139596431E-06,-80.2793807983398
1.48512229669552E-06,-79.2947006225586
1.49064319742673E-06,-78.2114028930664
1.49616409815794E-06,-77.0774459838867
1.50168499888915E-06,-75.9407730102539
1.50720589962036E-06,-74.8493423461914
1.51272680035157E-06,-73.8511123657227
1.51824770108278E-06,-72.994026184082
1.52376860181399E-06,-72.3232192993164
1.5292895025452E-06,-71.7692337036133
1.53481040327641E-06,-71.2766799926758
1.54033130400762E-06,-70.8362350463867
1.54585220473883E-06,-70.4385757446289
1.55137310547004E-06,-70.0743789672852
1.55689400620125E-06,-69.7343292236328
1.56241490693246E-06,-69.4090957641602
1.56793580766367E-06,-69.0893630981445
1.57345670839488E-06,-68.7658157348633
1.57897760912609E-06,-68.4291229248047
1.5844985098573E-06,-68.0699691772461
1.59001941058851E-06,-67.679313659668
1.59554031131972E-06,-67.2751846313477
1.60106121205093E-06,-66.8721389770508
1.60658211278214E-06,-66.4689254760742
1.61210301351335E-06,-66.0643081665039
1.61762391424456E-06,-65.6570510864258
1.62314481497577E-06,-65.2459182739258
1.62866571570698E-06,-64.8296737670898
1.63418661643819E-06,-64.4070739746094
1.6397075171694E-06,-63.9768943786621
1.64522841790061E-06,-63.5378837585449
1.65074931863182E-06,-63.0888137817383
1.65627021936303E-06,-62.6284332275391
1.66179112009424E-06,-62.1487770080566
1.66731202082545E-06,-61.6470184326172
1.67283292155666E-06,-61.1280479431152
1.67835382228787E-06,-60.5967445373535
1.68387472301908E-06,-60.0579948425293
1.68939562375029E-06,-59.5166778564453
1.6949165244815E-06,-58.9776802062988
1.70043742521271E-06,-58.4458847045898
1.70595832594392E-06,-57.9261703491211
1.71147922667513E-06,-57.4234313964844
1.71700012740634E-06,-56.9425392150879
1.72252102813755E-06,-56.4883842468262
1.72804192886876E-06,-56.0520515441895
1.73356282959997E-06,-55.6207885742188
1.73908373033118E-06,-55.1968955993652
1.74460463106239E-06,-54.7826843261719
1.7501255317936E-06,-54.3804779052734
1.75564643252481E-06,-53.9925842285156
1.76116733325602E-06,-53.6213264465332
1.76668823398723E-06,-53.2690200805664
1.77220913471844E-06,-52.9379806518555
1.77773003544965E-06,-52.6305274963379
1.78325093618086E-06,-52.3489685058594
1.78877183691207E-06,-52.095630645752
1.79429273764328E-06,-51.8677635192871
1.79981363837449E-06,-51.6590423583984
1.8053345391057E-06,-51.4701538085938
1.81085543983691E-06,-51.3018646240234
1.81637634056812E-06,-51.1549377441406
1.82189724129933E-06,-51.030143737793
1.82741814203054E-06,-50.9282493591309
1.83293904276175E-06,-50.8500175476074
1.83845994349296E-06,-50.796215057373
1.84398084422417E-06,-50.7676086425781
1.84950174495538E-06,-50.764965057373
1.85502264568659E-06,-50.7890510559082
1.8605435464178E-06,-50.8396949768066
1.86606444714901E-06,-50.9153175354004
1.87158534788022E-06,-51.0157585144043
1.87710624861143E-06,-51.1408958435059
1.88262714934264E-06,-51.2906112670898
1.88814805007385E-06,-51.4647941589355
1.89366895080506E-06,-51.6633186340332
1.89918985153627E-06,-51.8860740661621
1.90471075226748E-06,-52.1329383850098
1.91023165299869E-06,-52.4037933349609
1.9157525537299E-06,-52.6985244750977
1.92127345446111E-06,-53.0170097351074
1.92679435519232E-06,-53.3649826049805
1.93231525592353E-06,-53.754566192627
1.93783615665474E-06,-54.1810035705566
1.94335705738595E-06,-54.6387138366699
1.94887795811716E-06,-55.1221237182617
1.95439885884837E-06,-55.6256446838379
1.95991975957958E-06,-56.1437072753906
1.9654406603108E-06,-56.6707344055176
1.970961561042E-06,-57.2011375427246
1.97648246177322E-06,-57.7293472290039
1.98200336250443E-06,-58.2497825622559
1.98752426323564E-06,-58.7568626403809
1.99304516396685E-06,-59.2603225708008
1.99856606469806E-06,-59.8023719787598
2.00408696542927E-06,-60.3749580383301
2.00960786616048E-06,-60.9658584594727
2.01512876689169E-06,-61.5628471374512
2.0206496676229E-06,-62.1536979675293
2.02617056835411E-06,-62.7261848449707
2.03169146908532E-06,-63.2680816650391
2.03721236981653E-06,-63.767162322998
2.04273327054774E-06,-64.2111968994141
2.04825417127895E-06,-64.5879669189453
2.05377507201016E-06,-64.8852386474609
2.05929597274137E-06,-65.0957641601563
2.06481687347258E-06,-65.236457824707
2.07033777420379E-06,-65.3152008056641
2.075858674935E-06,-65.3378753662109
2.08137957566621E-06,-65.3103790283203
2.08690047639742E-06,-65.2385864257813
2.09242137712863E-06,-65.1284027099609
2.09794227785984E-06,-64.985710144043
2.10346317859105E-06,-64.8163909912109
2.10898407932226E-06,-64.6263427734375
2.11450498005347E-06,-64.4214477539063
2.12002588078468E-06,-64.2076034545898
2.12554678151589E-06,-63.9833869934082
2.1310676822471E-06,-63.7133483886719
2.13658858297831E-06,-63.3988151550293
2.14210948370952E-06,-63.047981262207
2.14763038444073E-06,-62.6690444946289
2.15315128517194E-06,-62.2701950073242
2.15867218590315E-06,-61.8596267700195
2.16419308663436E-06,-61.4455337524414
2.16971398736557E-06,-61.0361099243164
2.17523488809678E-06,-60.6395530700684
2.18075578882799E-06,-60.2640571594238
2.1862766895592E-06,-59.9178085327148
2.19179759029041E-06,-59.6043853759766
2.19731849102162E-06,-59.293872833252
2.20283939175283E-06,-58.9824867248535
2.20836029248404E-06,-58.6740760803223
2.21388119321525E-06,-58.3724899291992
2.21940209394646E-06,-58.0815811157227
2.22492299467767E-06,-57.8051986694336
2.23044389540888E-06,-57.5471954345703
2.23596479614009E-06,-57.3114166259766
2.2414856968713E-06,-57.1017189025879
2.24700659760251E-06,-56.921947479248
2.25252749833372E-06,-56.7759552001953
2.25804839906493E-06,-56.6658744812012
2.26356929979614E-06,-56.5757102966309
2.26909020052735E-06,-56.5027961730957
2.27461110125856E-06,-56.4498825073242
2.28013200198977E-06,-56.419734954834
2.28565290272098E-06,-56.4151077270508
2.29117380345219E-06,-56.4387588500977
2.2966947041834E-06,-56.4934387207031
2.30221560491461E-06,-56.581916809082
2.30773650564582E-06,-56.7069396972656
2.31325740637703E-06,-56.8712692260742
2.31877830710824E-06,-57.0776634216309
2.32429920783945E-06,-57.3277473449707
2.32982010857066E-06,-57.6048622131348
2.33534100930187E-06,-57.9059028625488
2.34086191003308E-06,-58.2351722717285
2.34638281076429E-06,-58.5969543457031
2.3519037114955E-06,-58.9955406188965
2.35742461222671E-06,-59.4352264404297
2.36294551295792E-06,-59.9202995300293
2.36846641368913E-06,-60.4550514221191
2.37398731442034E-06,-61.043773651123
2.37950821515155E-06,-61.6907577514648
2.38502911588276E-06,-62.4002952575684
2.39055001661397E-06,-63.1793785095215
2.39607091734518E-06,-64.1058959960938
2.40159181807639E-06,-65.1873321533203
2.4071127188076E-06,-66.3875045776367
2.41263361953881E-06,-67.6702270507813
2.41815452027002E-06,-68.9993286132813
2.42367542100123E-06,-70.3386154174805
2.42919632173244E-06,-71.6519165039063
2.43471722246365E-06,-72.9030456542969
2.44023812319486E-06,-74.0558242797852
2.44575902392607E-06,-75.0740661621094
2.45127992465728E-06,-75.9216003417969
2.45680082538849E-06,-76.5627517700195
2.4623217261197E-06,-77.0103378295898
2.46784262685091E-06,-77.3014907836914
2.47336352758212E-06,-77.458251953125
2.47888442831333E-06,-77.5026626586914
2.48440532904454E-06,-77.4567718505859
2.48992622977575E-06,-77.3426132202148
2.49544713050696E-06,-77.1822357177734
2.50096803123817E-06,-76.9976806640625
2.50648893196938E-06,-76.8109893798828
2.51200983270059E-06,-76.6442108154297
2.5175307334318E-06,-76.5193862915039
2.52305163416301E-06,-76.4584274291992
2.52857253489422E-06,-76.4361953735352
2.53409343562543E-06,-76.4191436767578
2.53961433635665E-06,-76.4042129516602
2.54513523708785E-06,-76.388313293457
2.55065613781907E-06,-76.3683853149414
2.55617703855028E-06,-76.3413543701172
2.56169793928149E-06,-76.3041381835938
2.5672188400127E-06,-76.2536773681641
2.57273974074391E-06,-76.1868896484375
2.57826064147512E-06,-76.100700378418
2.58378154220633E-06,-75.9920425415039
2.58930244293754E-06,-75.8578491210938
2.59482334366875E-06,-75.6922836303711
2.60034424439996E-06,-75.4947052001953
2.60586514513117E-06,-75.2702713012695
2.61138604586238E-06,-75.0241470336914
2.61690694659359E-06,-74.7614898681641
2.6224278473248E-06,-74.4874649047852
2.62794874805601E-06,-74.2072219848633
2.63346964878722E-06,-73.9259414672852
2.63899054951843E-06,-73.6487655639648
2.64451145024964E-06,-73.3808670043945
2.65003235098085E-06,-73.1274032592773
2.65555325171206E-06,-72.8935470581055
2.66107415244327E-06,-72.6665954589844
2.66659505317448E-06,-72.4265670776367
2.67211595390569E-06,-72.1789474487305
2.6776368546369E-06,-71.9294357299805
2.68315775536811E-06,-71.683708190918
2.68867865609932E-06,-71.4474639892578
2.69419955683053E-06,-71.2263870239258
2.69972045756174E-06,-71.0261688232422
2.70524135829295E-06,-70.8524932861328
2.71076225902416E-06,-70.711051940918
2.71628315975537E-06,-70.607536315918
2.72180406048658E-06,-70.5476303100586
