Trace
Swept SA
A.19.55,N9020B
508 AB2 B25 B40 B85 DP2 DP4 EP2 FS1 FS2 MPB RTL ,01
Segment,0
Number of Points,81920
Sweep Time,0.0004096
Start Frequency,2400000000
Stop Frequency,2400000000
Average Count,0
Average Type,LogPower(Video)
RBW,3000000
RBW Filter,Gaussian
RBW Filter BW,3dB
VBW,3000000
Sweep Type,Swept
X Axis Scale,Lin
PreAmp State,Off
PreAmp Band,Low
Trigger Source,Ext1
Trigger Level,1.2
Trigger Slope,Positive
Trigger Delay,1E-06
Phase Noise Optimization,Fast
Swept If Gain,Low
FFT If Gain,Autorange
RF Coupling,AC
FFT Width,411900
Ext Ref,10000000
Input,RF
RF Calibrator,Off
Attenuation,6
Ref Level Offset,0
External Gain,0
Trace Type,Clearwrite
Detector,Normal
Trace Math,Off
Trace Math Oper1,Trace5
Trace Math Oper2,Trace6
Trace Math Offset,0
Normalize,Off
Trace Name,Trace1
X Axis Units,s
Y Axis Units,dBm
DATA
0,-42.0176658630371
5.00006103590132E-09,-43.0372009277344
1.00001220718026E-08,-44.2026138305664
1.50001831077039E-08,-45.476448059082
2.00002441436053E-08,-46.8212394714355
2.50003051795066E-08,-48.1995239257813
3.00003662154079E-08,-49.573844909668
3.50004272513092E-08,-50.9067344665527
4.00004882872105E-08,-52.1607360839844
4.50005493231118E-08,-53.2983856201172
5.00006103590132E-08,-54.2822189331055
5.50006713949145E-08,-55.0747756958008
6.00007324308158E-08,-55.643180847168
6.50007934667171E-08,-56.0267448425293
7.00008545026184E-08,-56.2598571777344
7.50009155385197E-08,-56.362850189209
8.00009765744211E-08,-56.3560409545898
8.50010376103224E-08,-56.2597618103027
9.00010986462237E-08,-56.0943298339844
9.5001159682125E-08,-55.8800773620605
1.00001220718026E-07,-55.637321472168
1.05001281753928E-07,-55.3863945007324
1.10001342789829E-07,-55.1476173400879
1.1500140382573E-07,-54.9413146972656
1.20001464861632E-07,-54.7878112792969
1.25001525897533E-07,-54.7074317932129
1.30001586933434E-07,-54.6686706542969
1.35001647969336E-07,-54.6275329589844
1.40001709005237E-07,-54.5856132507324
1.45001770041138E-07,-54.5445022583008
1.50001831077039E-07,-54.505802154541
1.55001892112941E-07,-54.4711074829102
1.60001953148842E-07,-54.442008972168
1.65002014184743E-07,-54.4201011657715
1.70002075220645E-07,-54.4069862365723
1.75002136256546E-07,-54.4042549133301
1.80002197292447E-07,-54.413501739502
1.85002258328349E-07,-54.4363250732422
1.9000231936425E-07,-54.4743156433105
1.95002380400151E-07,-54.5352210998535
2.00002441436053E-07,-54.6360206604004
2.05002502471954E-07,-54.7701263427734
2.10002563507855E-07,-54.9292182922363
2.15002624543757E-07,-55.1049880981445
2.20002685579658E-07,-55.2891120910645
2.25002746615559E-07,-55.4732818603516
2.30002807651461E-07,-55.6491851806641
2.35002868687362E-07,-55.8084983825684
2.40002929723263E-07,-55.9429168701172
2.45002990759165E-07,-56.044116973877
2.50003051795066E-07,-56.1037902832031
2.55003112830967E-07,-56.1136207580566
2.60003173866868E-07,-56.065258026123
2.6500323490277E-07,-55.955020904541
2.70003295938671E-07,-55.7903785705566
2.75003356974572E-07,-55.5802230834961
2.80003418010474E-07,-55.3334426879883
2.85003479046375E-07,-55.0589256286621
2.90003540082276E-07,-54.765567779541
2.95003601118178E-07,-54.4622497558594
3.00003662154079E-07,-54.1578674316406
3.0500372318998E-07,-53.8613090515137
3.10003784225882E-07,-53.5814628601074
3.15003845261783E-07,-53.3272171020508
3.20003906297684E-07,-53.1074638366699
3.25003967333586E-07,-52.9310913085938
3.30004028369487E-07,-52.7726554870605
3.35004089405388E-07,-52.605037689209
3.4000415044129E-07,-52.4346046447754
3.45004211477191E-07,-52.2677307128906
3.50004272513092E-07,-52.1107864379883
3.55004333548993E-07,-51.970142364502
3.60004394584895E-07,-51.8521728515625
3.65004455620796E-07,-51.7632484436035
3.70004516656697E-07,-51.7097396850586
3.75004577692599E-07,-51.6980171203613
3.800046387285E-07,-51.7344551086426
3.85004699764401E-07,-51.8254241943359
3.90004760800303E-07,-51.977294921875
3.95004821836204E-07,-52.2107124328613
4.00004882872105E-07,-52.5651779174805
4.05004943908007E-07,-53.0225372314453
4.10005004943908E-07,-53.5605354309082
4.15005065979809E-07,-54.1569213867188
4.20005127015711E-07,-54.7894439697266
4.25005188051612E-07,-55.435848236084
4.30005249087513E-07,-56.0738792419434
4.35005310123415E-07,-56.6812858581543
4.40005371159316E-07,-57.2358169555664
4.45005432195217E-07,-57.715217590332
4.50005493231119E-07,-58.0972328186035
4.5500555426702E-07,-58.3596153259277
4.60005615302921E-07,-58.4817581176758
4.65005676338822E-07,-58.4743957519531
4.70005737374724E-07,-58.3577995300293
4.75005798410625E-07,-58.1484909057617
4.80005859446526E-07,-57.8629989624023
4.85005920482428E-07,-57.5178489685059
4.90005981518329E-07,-57.129566192627
4.9500604255423E-07,-56.714672088623
5.00006103590132E-07,-56.2897033691406
5.05006164626033E-07,-55.8711776733398
5.10006225661934E-07,-55.4756202697754
5.15006286697836E-07,-55.1195640563965
5.20006347733737E-07,-54.8195304870605
5.25006408769638E-07,-54.5920486450195
5.3000646980554E-07,-54.409595489502
5.35006530841441E-07,-54.2351112365723
5.40006591877342E-07,-54.0708236694336
5.45006652913243E-07,-53.9189529418945
5.50006713949145E-07,-53.7817230224609
5.55006774985046E-07,-53.6613540649414
5.60006836020948E-07,-53.5600662231445
5.65006897056849E-07,-53.4800834655762
5.7000695809275E-07,-53.4236297607422
5.75007019128651E-07,-53.3929252624512
5.80007080164553E-07,-53.390193939209
5.85007141200454E-07,-53.417652130127
5.90007202236355E-07,-53.4775314331055
5.95007263272257E-07,-53.5837287902832
6.00007324308158E-07,-53.7685050964355
6.05007385344059E-07,-54.020191192627
6.10007446379961E-07,-54.3238830566406
6.15007507415862E-07,-54.6646690368652
6.20007568451763E-07,-55.027645111084
6.25007629487665E-07,-55.3979072570801
6.30007690523566E-07,-55.7605438232422
6.35007751559467E-07,-56.1006507873535
6.40007812595369E-07,-56.4033241271973
6.4500787363127E-07,-56.6536521911621
6.50007934667171E-07,-56.8367309570313
6.55007995703072E-07,-56.9376525878906
6.60008056738974E-07,-56.9422454833984
6.65008117774875E-07,-56.8532981872559
6.70008178810776E-07,-56.6843299865723
6.75008239846678E-07,-56.4479637145996
6.80008300882579E-07,-56.1568222045898
6.8500836191848E-07,-55.8235321044922
6.90008422954382E-07,-55.4607124328613
6.95008483990283E-07,-55.0809860229492
7.00008545026184E-07,-54.6969757080078
7.05008606062086E-07,-54.3213081359863
7.10008667097987E-07,-53.9666061401367
7.15008728133888E-07,-53.6454925537109
7.2000878916979E-07,-53.3705863952637
7.25008850205691E-07,-53.1545143127441
7.30008911241592E-07,-52.9766540527344
7.35008972277494E-07,-52.8089828491211
7.40009033313395E-07,-52.6529922485352
7.45009094349296E-07,-52.5101852416992
7.50009155385198E-07,-52.3820686340332
7.55009216421099E-07,-52.2701377868652
7.60009277457E-07,-52.175895690918
7.65009338492901E-07,-52.1008415222168
7.70009399528803E-07,-52.0464820861816
7.75009460564704E-07,-52.0143165588379
7.80009521600605E-07,-52.0058441162109
7.85009582636507E-07,-52.0225639343262
7.90009643672408E-07,-52.0659866333008
7.95009704708309E-07,-52.1451873779297
8.00009765744211E-07,-52.2811241149902
8.05009826780112E-07,-52.4661521911621
8.10009887816013E-07,-52.6905326843262
8.15009948851915E-07,-52.9445152282715
8.20010009887816E-07,-53.2183609008789
8.25010070923717E-07,-53.5023231506348
8.30010131959619E-07,-53.7866554260254
8.3501019299552E-07,-54.0616149902344
8.40010254031421E-07,-54.3174591064453
8.45010315067323E-07,-54.5444412231445
8.50010376103224E-07,-54.7328186035156
8.55010437139125E-07,-54.8728485107422
8.60010498175026E-07,-54.9558944702148
8.65010559210928E-07,-54.9911766052246
8.70010620246829E-07,-54.9876289367676
8.7501068128273E-07,-54.9508972167969
8.80010742318632E-07,-54.8866195678711
8.85010803354533E-07,-54.8004302978516
8.90010864390434E-07,-54.6979713439941
8.95010925426336E-07,-54.5848846435547
9.00010986462237E-07,-54.4668083190918
9.05011047498138E-07,-54.3493804931641
9.1001110853404E-07,-54.2382392883301
9.15011169569941E-07,-54.139030456543
9.20011230605842E-07,-54.0573883056641
9.25011291641744E-07,-53.9989547729492
9.30011352677645E-07,-53.9444618225098
9.35011413713546E-07,-53.8745918273926
9.40011474749448E-07,-53.7949104309082
9.45011535785349E-07,-53.7109718322754
9.5001159682125E-07,-53.6283493041992
9.55011657857151E-07,-53.5525970458984
9.60011718893053E-07,-53.4892807006836
9.65011779928954E-07,-53.4439582824707
9.70011840964855E-07,-53.4221992492676
9.75011902000757E-07,-53.4295616149902
9.80011963036658E-07,-53.4716110229492
9.85012024072559E-07,-53.5539016723633
9.90012085108461E-07,-53.6820068359375
9.95012146144362E-07,-53.8725395202637
1.00001220718026E-06,-54.1561279296875
1.00501226821616E-06,-54.5180358886719
1.01001232925207E-06,-54.9403343200684
1.01501239028797E-06,-55.405086517334
1.02001245132387E-06,-55.8943557739258
1.02501251235977E-06,-56.390209197998
1.03001257339567E-06,-56.8747138977051
1.03501263443157E-06,-57.3299331665039
1.04001269546747E-06,-57.7379341125488
1.04501275650338E-06,-58.0807800292969
1.05001281753928E-06,-58.3405418395996
1.05501287857518E-06,-58.4992790222168
1.06001293961108E-06,-58.5398864746094
1.06501300064698E-06,-58.4650268554688
1.07001306168288E-06,-58.2909545898438
1.07501312271878E-06,-58.0331001281738
1.08001318375468E-06,-57.7068977355957
1.08501324479059E-06,-57.3277778625488
1.09001330582649E-06,-56.9111671447754
1.09501336686239E-06,-56.4724998474121
1.10001342789829E-06,-56.0272102355957
1.10501348893419E-06,-55.5907287597656
1.11001354997009E-06,-55.1784820556641
1.11501361100599E-06,-54.8059043884277
1.1200136720419E-06,-54.4884300231934
1.1250137330778E-06,-54.2414855957031
1.1300137941137E-06,-54.0425491333008
1.1350138551496E-06,-53.8591728210449
1.1400139161855E-06,-53.6918792724609
1.1450139772214E-06,-53.541202545166
1.1500140382573E-06,-53.4076728820801
1.1550140992932E-06,-53.2918128967285
1.16001416032911E-06,-53.1941566467285
1.16501422136501E-06,-53.1152305603027
1.17001428240091E-06,-53.0555686950684
1.17501434343681E-06,-53.015697479248
1.18001440447271E-06,-52.9961433410645
1.18501446550861E-06,-52.9974403381348
1.19001452654451E-06,-53.0201110839844
1.19501458758041E-06,-53.0725936889648
1.20001464861632E-06,-53.1766700744629
1.20501470965222E-06,-53.3254890441895
1.21001477068812E-06,-53.5100440979004
1.21501483172402E-06,-53.7213363647461
1.22001489275992E-06,-53.9503593444824
1.22501495379582E-06,-54.1881103515625
1.23001501483172E-06,-54.4255828857422
1.23501507586763E-06,-54.6537742614746
1.24001513690353E-06,-54.8636817932129
1.24501519793943E-06,-55.0462989807129
1.25001525897533E-06,-55.1926231384277
1.25501532001123E-06,-55.2936515808105
1.26001538104713E-06,-55.3412742614746
1.26501544208303E-06,-55.3424797058105
1.27001550311893E-06,-55.3055000305176
1.27501556415484E-06,-55.2360877990723
1.28001562519074E-06,-55.1399993896484
1.28501568622664E-06,-55.0229873657227
1.29001574726254E-06,-54.8908004760742
1.29501580829844E-06,-54.749195098877
1.30001586933434E-06,-54.6039276123047
1.30501593037024E-06,-54.4607429504395
1.31001599140614E-06,-54.3254013061523
1.31501605244205E-06,-54.2036514282227
1.32001611347795E-06,-54.101245880127
1.32501617451385E-06,-54.0239410400391
1.33001623554975E-06,-53.9506988525391
1.33501629658565E-06,-53.8608703613281
1.34001635762155E-06,-53.7608070373535
1.34501641865745E-06,-53.6568565368652
1.35001647969336E-06,-53.5553703308105
1.35501654072926E-06,-53.4626922607422
1.36001660176516E-06,-53.3851737976074
1.36501666280106E-06,-53.3291625976563
1.37001672383696E-06,-53.3010063171387
1.37501678487286E-06,-53.3070526123047
1.38001684590876E-06,-53.3536491394043
1.38501690694466E-06,-53.4471473693848
1.39001696798057E-06,-53.5938949584961
1.39501702901647E-06,-53.8129539489746
1.40001709005237E-06,-54.1395530700684
1.40501715108827E-06,-54.5567932128906
1.41001721212417E-06,-55.0441055297852
1.41501727316007E-06,-55.5809173583984
1.42001733419597E-06,-56.146656036377
1.42501739523188E-06,-56.7207450866699
1.43001745626778E-06,-57.2826194763184
1.43501751730368E-06,-57.8117027282715
1.44001757833958E-06,-58.2874221801758
1.44501763937548E-06,-58.689208984375
1.45001770041138E-06,-58.9964866638184
1.45501776144728E-06,-59.1886863708496
1.46001782248318E-06,-59.2462692260742
1.46501788351909E-06,-59.1733703613281
1.47001794455499E-06,-58.9886512756348
1.47501800559089E-06,-58.7094268798828
1.48001806662679E-06,-58.3530235290527
1.48501812766269E-06,-57.9367637634277
1.49001818869859E-06,-57.4779624938965
1.49501824973449E-06,-56.9939460754395
1.5000183107704E-06,-56.5020370483398
1.5050183718063E-06,-56.0195541381836
1.5100184328422E-06,-55.5638198852539
1.5150184938781E-06,-55.1521530151367
1.520018554914E-06,-54.8018760681152
1.5250186159499E-06,-54.5303153991699
1.5300186769858E-06,-54.3262367248535
1.5350187380217E-06,-54.1627159118652
1.54001879905761E-06,-54.033504486084
1.54501886009351E-06,-53.9323616027832
1.55001892112941E-06,-53.8530426025391
1.55501898216531E-06,-53.7893028259277
1.56001904320121E-06,-53.7349014282227
1.56501910423711E-06,-53.6835975646973
1.57001916527301E-06,-53.6291427612305
1.57501922630891E-06,-53.5652961730957
1.58001928734482E-06,-53.4858169555664
1.58501934838072E-06,-53.3844566345215
1.59001940941662E-06,-53.2549781799316
1.59501947045252E-06,-53.0999870300293
1.60001953148842E-06,-52.9437446594238
1.60501959252432E-06,-52.7858581542969
1.61001965356022E-06,-52.6237831115723
1.61501971459613E-06,-52.4549827575684
1.62001977563203E-06,-52.2769241333008
1.62501983666793E-06,-52.0870628356934
1.63001989770383E-06,-51.8828620910645
1.63501995873973E-06,-51.6617889404297
1.64002001977563E-06,-51.4212951660156
1.64502008081153E-06,-51.1588478088379
1.65002014184743E-06,-50.8719100952148
1.65502020288334E-06,-50.5579414367676
1.66002026391924E-06,-50.2125549316406
1.66502032495514E-06,-49.8130264282227
1.67002038599104E-06,-49.3613548278809
1.67502044702694E-06,-48.8678741455078
1.68002050806284E-06,-48.3429298400879
1.68502056909874E-06,-47.7968559265137
1.69002063013465E-06,-47.239990234375
1.69502069117055E-06,-46.682674407959
1.70002075220645E-06,-46.1352500915527
1.70502081324235E-06,-45.6080474853516
1.71002087427825E-06,-45.1114120483398
1.71502093531415E-06,-44.6556777954102
1.72002099635005E-06,-44.2511863708496
1.72502105738595E-06,-43.908275604248
1.73002111842186E-06,-43.6299018859863
1.73502117945776E-06,-43.4065132141113
1.74002124049366E-06,-43.2296867370605
1.74502130152956E-06,-43.090991973877
1.75002136256546E-06,-42.9820137023926
1.75502142360136E-06,-42.8943290710449
1.76002148463726E-06,-42.819507598877
1.76502154567316E-06,-42.7491302490234
1.77002160670907E-06,-42.6747703552246
1.77502166774497E-06,-42.5880088806152
1.78002172878087E-06,-42.4804191589355
1.78502178981677E-06,-42.3435821533203
1.79002185085267E-06,-42.1690673828125
1.79502191188857E-06,-41.9479751586914
1.80002197292447E-06,-41.6787643432617
1.80502203396038E-06,-41.3708038330078
1.81002209499628E-06,-41.0339126586914
1.81502215603218E-06,-40.6779174804688
1.82002221706808E-06,-40.3126335144043
1.82502227810398E-06,-39.9478874206543
1.83002233913988E-06,-39.5935020446777
1.83502240017578E-06,-39.2592964172363
1.84002246121168E-06,-38.9550971984863
1.84502252224759E-06,-38.6907272338867
1.85002258328349E-06,-38.4760055541992
1.85502264431939E-06,-38.3207550048828
1.86002270535529E-06,-38.2344665527344
1.86502276639119E-06,-38.2170944213867
1.87002282742709E-06,-38.2597465515137
1.87502288846299E-06,-38.3534812927246
1.8800229494989E-06,-38.4893493652344
1.8850230105348E-06,-38.6583938598633
1.8900230715707E-06,-38.851676940918
1.8950231326066E-06,-39.0602378845215
1.9000231936425E-06,-39.2751388549805
1.9050232546784E-06,-39.4874229431152
1.9100233157143E-06,-39.6881446838379
1.9150233767502E-06,-39.868350982666
1.92002343778611E-06,-40.019100189209
1.92502349882201E-06,-40.1314392089844
1.93002355985791E-06,-40.1920051574707
1.93502362089381E-06,-40.201774597168
1.94002368192971E-06,-40.1732864379883
1.94502374296561E-06,-40.1190948486328
1.95002380400151E-06,-40.0517387390137
1.95502386503741E-06,-39.9837646484375
1.96002392607332E-06,-39.9277229309082
1.96502398710922E-06,-39.8961563110352
1.97002404814512E-06,-39.9016151428223
1.97502410918102E-06,-39.9566383361816
1.98002417021692E-06,-40.0737762451172
1.98502423125282E-06,-40.2655715942383
1.99002429228872E-06,-40.5445747375488
1.99502435332463E-06,-40.9305877685547
2.00002441436053E-06,-41.4439392089844
2.00502447539643E-06,-42.0654792785645
2.01002453643233E-06,-42.7735977172852
2.01502459746823E-06,-43.5466918945313
2.02002465850413E-06,-44.3631591796875
2.02502471954003E-06,-45.2013969421387
2.03002478057593E-06,-46.0397987365723
2.03502484161184E-06,-46.856761932373
2.04002490264774E-06,-47.6306838989258
2.04502496368364E-06,-48.3399620056152
2.05002502471954E-06,-48.9629859924316
2.05502508575544E-06,-49.4781608581543
2.06002514679134E-06,-49.8668823242188
2.06502520782724E-06,-50.1560363769531
2.07002526886315E-06,-50.3655242919922
2.07502532989905E-06,-50.5055656433105
2.08002539093495E-06,-50.5863990783691
2.08502545197085E-06,-50.6182518005371
2.09002551300675E-06,-50.6113586425781
2.09502557404265E-06,-50.5759429931641
2.10002563507855E-06,-50.5222434997559
2.10502569611445E-06,-50.4604835510254
2.11002575715036E-06,-50.4009017944336
2.11502581818626E-06,-50.3537216186523
2.12002587922216E-06,-50.3291778564453
2.12502594025806E-06,-50.3375015258789
2.13002600129396E-06,-50.3409004211426
2.13502606232986E-06,-50.3024139404297
2.14002612336576E-06,-50.233512878418
2.14502618440166E-06,-50.1456680297852
2.15002624543757E-06,-50.0503540039063
2.15502630647347E-06,-49.9590377807617
2.16002636750937E-06,-49.8831939697266
2.16502642854527E-06,-49.8342933654785
2.17002648958117E-06,-49.8238067626953
2.17502655061707E-06,-49.863208770752
2.18002661165297E-06,-49.9639663696289
2.18502667268888E-06,-50.1375579833984
2.19002673372478E-06,-50.3954467773438
2.19502679476068E-06,-50.7628898620605
2.20002685579658E-06,-51.2781600952148
2.20502691683248E-06,-51.9180564880371
2.21002697786838E-06,-52.6552124023438
2.21502703890428E-06,-53.4622650146484
2.22002709994018E-06,-54.3118476867676
2.22502716097609E-06,-55.1765975952148
2.23002722201199E-06,-56.0291481018066
2.23502728304789E-06,-56.8421325683594
2.24002734408379E-06,-57.5881881713867
2.24502740511969E-06,-58.2399482727051
2.25002746615559E-06,-58.7700500488281
2.25502752719149E-06,-59.1511268615723
2.2600275882274E-06,-59.3578681945801
2.2650276492633E-06,-59.4037551879883
2.2700277102992E-06,-59.3137130737305
2.2750277713351E-06,-59.107967376709
2.280027832371E-06,-58.8067436218262
2.2850278934069E-06,-58.4302558898926
2.2900279544428E-06,-57.9987373352051
2.2950280154787E-06,-57.5324058532715
2.30002807651461E-06,-57.0514907836914
2.30502813755051E-06,-56.5762062072754
2.31002819858641E-06,-56.126781463623
2.31502825962231E-06,-55.7234420776367
2.32002832065821E-06,-55.3864059448242
2.32502838169411E-06,-55.1359024047852
2.33002844273001E-06,-54.9399452209473
2.33502850376592E-06,-54.7543411254883
2.34002856480182E-06,-54.580982208252
2.34502862583772E-06,-54.4217567443848
2.35002868687362E-06,-54.278564453125
2.35502874790952E-06,-54.1532936096191
2.36002880894542E-06,-54.0478363037109
2.36502886998132E-06,-53.9640884399414
2.37002893101722E-06,-53.9039421081543
2.37502899205313E-06,-53.8692893981934
2.38002905308903E-06,-53.8620262145996
2.38502911412493E-06,-53.8840370178223
2.39002917516083E-06,-53.9372253417969
2.39502923619673E-06,-54.0345993041992
2.40002929723263E-06,-54.2068824768066
2.40502935826853E-06,-54.4431915283203
2.41002941930443E-06,-54.7295837402344
2.41502948034034E-06,-55.0521049499512
2.42002954137624E-06,-55.3968124389648
2.42502960241214E-06,-55.749755859375
2.43002966344804E-06,-56.0969886779785
2.43502972448394E-06,-56.4245567321777
2.44002978551984E-06,-56.7185134887695
2.44502984655574E-06,-56.9649124145508
2.45002990759165E-06,-57.1498031616211
2.45502996862755E-06,-57.2592391967773
2.46003002966345E-06,-57.2801094055176
2.46503009069935E-06,-57.2168273925781
