Trace
Swept SA
A.19.55,N9020B
508 AB2 B25 B40 B85 DP2 DP4 EP2 FS1 FS2 MPB RTL ,01
Segment,0
Number of Points,81920
Sweep Time,0.0004096
Start Frequency,2400000000
Stop Frequency,2400000000
Average Count,0
Average Type,LogPower(Video)
RBW,3000000
RBW Filter,Gaussian
RBW Filter BW,3dB
VBW,3000000
Sweep Type,Swept
X Axis Scale,Lin
PreAmp State,Off
PreAmp Band,Low
Trigger Source,Ext1
Trigger Level,1.2
Trigger Slope,Positive
Trigger Delay,1E-06
Phase Noise Optimization,Fast
Swept If Gain,Low
FFT If Gain,Autorange
RF Coupling,AC
FFT Width,411900
Ext Ref,10000000
Input,RF
RF Calibrator,Off
Attenuation,6
Ref Level Offset,0
External Gain,0
Trace Type,Clearwrite
Detector,Normal
Trace Math,Off
Trace Math Oper1,Trace5
Trace Math Oper2,Trace6
Trace Math Offset,0
Normalize,Off
Trace Name,Trace1
X Axis Units,s
Y Axis Units,dBm
DATA
0,-50.9002990722656
5.00006103590132E-09,-52.0140838623047
1.00001220718026E-08,-53.2422523498535
1.50001831077039E-08,-54.5520133972168
2.00002441436053E-08,-55.9105834960938
2.50003051795066E-08,-57.2851791381836
3.00003662154079E-08,-58.6430053710938
3.50004272513092E-08,-59.9512786865234
4.00004882872105E-08,-61.1772117614746
4.50005493231118E-08,-62.2880210876465
5.00006103590132E-08,-63.2509155273438
5.50006713949145E-08,-64.0331115722656
6.00007324308158E-08,-64.605339050293
6.50007934667171E-08,-64.9961395263672
7.00008545026184E-08,-65.2355499267578
7.50009155385197E-08,-65.3434143066406
8.00009765744211E-08,-65.339599609375
8.50010376103224E-08,-65.2439575195313
9.00010986462237E-08,-65.0763320922852
9.5001159682125E-08,-64.8565826416016
1.00001220718026E-07,-64.6045608520508
1.05001281753928E-07,-64.3401336669922
1.10001342789829E-07,-64.083137512207
1.1500140382573E-07,-63.8534393310547
1.20001464861632E-07,-63.6708831787109
1.25001525897533E-07,-63.5553359985352
1.30001586933434E-07,-63.4515419006348
1.35001647969336E-07,-63.2999992370605
1.40001709005237E-07,-63.1141738891602
1.45001770041138E-07,-62.9075164794922
1.50001831077039E-07,-62.6934928894043
1.55001892112941E-07,-62.4855613708496
1.60001953148842E-07,-62.2971839904785
1.65002014184743E-07,-62.1418228149414
1.70002075220645E-07,-62.0329322814941
1.75002136256546E-07,-61.9839782714844
1.80002197292447E-07,-62.008415222168
1.85002258328349E-07,-62.1197090148926
1.9000231936425E-07,-62.3313179016113
1.95002380400151E-07,-62.6720733642578
2.00002441436053E-07,-63.1847076416016
2.05002502471954E-07,-63.8426170349121
2.10002563507855E-07,-64.6145477294922
2.15002624543757E-07,-65.4692306518555
2.20002685579658E-07,-66.3754043579102
2.25002746615559E-07,-67.3018112182617
2.30002807651461E-07,-68.2171783447266
2.35002868687362E-07,-69.0902481079102
2.40002929723263E-07,-69.8897552490234
2.45002990759165E-07,-70.5844345092773
2.50003051795066E-07,-71.1430206298828
2.55003112830967E-07,-71.5342559814453
2.60003173866868E-07,-71.729362487793
2.6500323490277E-07,-71.7453231811523
2.70003295938671E-07,-71.6106262207031
2.75003356974572E-07,-71.3478317260742
2.80003418010474E-07,-70.9794769287109
2.85003479046375E-07,-70.5280990600586
2.90003540082276E-07,-70.0162582397461
2.95003601118178E-07,-69.4664916992188
3.00003662154079E-07,-68.9013442993164
3.0500372318998E-07,-68.3433609008789
3.10003784225882E-07,-67.8150863647461
3.15003845261783E-07,-67.3390731811523
3.20003906297684E-07,-66.9378509521484
3.25003967333586E-07,-66.6339797973633
3.30004028369487E-07,-66.3720092773438
3.35004089405388E-07,-66.0892944335938
3.4000415044129E-07,-65.7975616455078
3.45004211477191E-07,-65.5085678100586
3.50004272513092E-07,-65.2340469360352
3.55004333548993E-07,-64.9857330322266
3.60004394584895E-07,-64.7753753662109
3.65004455620796E-07,-64.6147155761719
3.70004516656697E-07,-64.5154800415039
3.75004577692599E-07,-64.4894256591797
3.800046387285E-07,-64.5482864379883
3.85004699764401E-07,-64.7038040161133
3.90004760800303E-07,-64.9677124023438
3.95004821836204E-07,-65.379280090332
4.00004882872105E-07,-66.0146713256836
4.05004943908007E-07,-66.8394546508789
4.10005004943908E-07,-67.8113250732422
4.15005065979809E-07,-68.8879699707031
4.20005127015711E-07,-70.0270919799805
4.25005188051612E-07,-71.1863632202148
4.30005249087513E-07,-72.323486328125
4.35005310123415E-07,-73.3961563110352
4.40005371159316E-07,-74.3620529174805
4.45005432195217E-07,-75.1788711547852
4.50005493231119E-07,-75.8043060302734
4.5500555426702E-07,-76.196044921875
4.60005615302921E-07,-76.3144607543945
4.65005676338822E-07,-76.1744842529297
4.70005737374724E-07,-75.814582824707
4.75005798410625E-07,-75.2681045532227
4.80005859446526E-07,-74.5683975219727
4.85005920482428E-07,-73.7488174438477
4.90005981518329E-07,-72.8427047729492
4.9500604255423E-07,-71.883430480957
5.00006103590132E-07,-70.9043197631836
5.05006164626033E-07,-69.9387435913086
5.10006225661934E-07,-69.0200424194336
5.15006286697836E-07,-68.1815719604492
5.20006347733737E-07,-67.4566802978516
5.25006408769638E-07,-66.8787155151367
5.3000646980554E-07,-66.3902969360352
5.35006530841441E-07,-65.9154052734375
5.40006591877342E-07,-65.4594039916992
5.45006652913243E-07,-65.0276870727539
5.50006713949145E-07,-64.6256332397461
5.55006774985046E-07,-64.2586212158203
5.60006836020948E-07,-63.9320373535156
5.65006897056849E-07,-63.6512641906738
5.7000695809275E-07,-63.4216804504395
5.75007019128651E-07,-63.2486686706543
5.80007080164553E-07,-63.1376152038574
5.85007141200454E-07,-63.0938949584961
5.90007202236355E-07,-63.1228942871094
5.95007263272257E-07,-63.2465400695801
6.00007324308158E-07,-63.5105819702148
6.05007385344059E-07,-63.896110534668
6.10007446379961E-07,-64.3795394897461
6.15007507415862E-07,-64.9372863769531
6.20007568451763E-07,-65.545768737793
6.25007629487665E-07,-66.181396484375
6.30007690523566E-07,-66.8205947875977
6.35007751559467E-07,-67.4397735595703
6.40007812595369E-07,-68.0153503417969
6.4500787363127E-07,-68.5237426757813
6.50007934667171E-07,-68.9413604736328
6.55007995703072E-07,-69.2446212768555
6.60008056738974E-07,-69.4130859375
6.65008117774875E-07,-69.4744491577148
6.70008178810776E-07,-69.4504089355469
6.75008239846678E-07,-69.3527145385742
6.80008300882579E-07,-69.193115234375
6.8500836191848E-07,-68.9833679199219
6.90008422954382E-07,-68.735221862793
6.95008483990283E-07,-68.4604339599609
7.00008545026184E-07,-68.1707611083984
7.05008606062086E-07,-67.8779373168945
7.10008667097987E-07,-67.5937347412109
7.15008728133888E-07,-67.3298950195313
7.2000878916979E-07,-67.0981674194336
7.25008850205691E-07,-66.9103164672852
7.30008911241592E-07,-66.7439117431641
7.35008972277494E-07,-66.5706558227539
7.40009033313395E-07,-66.3935317993164
7.45009094349296E-07,-66.2154998779297
7.50009155385198E-07,-66.0395431518555
7.55009216421099E-07,-65.8686294555664
7.60009277457E-07,-65.7057189941406
7.65009338492901E-07,-65.5537948608398
7.70009399528803E-07,-65.4158248901367
7.75009460564704E-07,-65.2947769165039
7.80009521600605E-07,-65.1936264038086
7.85009582636507E-07,-65.1153411865234
7.90009643672408E-07,-65.0628967285156
7.95009704708309E-07,-65.0432052612305
8.00009765744211E-07,-65.0672454833984
8.05009826780112E-07,-65.1287002563477
8.10009887816013E-07,-65.220085144043
8.15009948851915E-07,-65.3338851928711
8.20010009887816E-07,-65.4626159667969
8.25010070923717E-07,-65.5987777709961
8.30010131959619E-07,-65.7348785400391
8.3501019299552E-07,-65.8634185791016
8.40010254031421E-07,-65.9768981933594
8.45010315067323E-07,-66.0678329467773
8.50010376103224E-07,-66.1287078857422
8.55010437139125E-07,-66.1520462036133
8.60010498175026E-07,-66.1311340332031
8.65010559210928E-07,-66.0723724365234
8.70010620246829E-07,-65.9826202392578
8.7501068128273E-07,-65.8664703369141
8.80010742318632E-07,-65.7285003662109
8.85010803354533E-07,-65.5732955932617
8.90010864390434E-07,-65.4054412841797
8.95010925426336E-07,-65.2295379638672
9.00010986462237E-07,-65.0501480102539
9.05011047498138E-07,-64.8718795776367
9.1001110853404E-07,-64.6993026733398
9.15011169569941E-07,-64.5370101928711
9.20011230605842E-07,-64.3895797729492
9.25011291641744E-07,-64.2616119384766
9.30011352677645E-07,-64.1149978637695
9.35011413713546E-07,-63.9188919067383
9.40011474749448E-07,-63.688720703125
9.45011535785349E-07,-63.4399185180664
9.5001159682125E-07,-63.187915802002
9.55011657857151E-07,-62.9481430053711
9.60011718893053E-07,-62.7360382080078
9.65011779928954E-07,-62.5670280456543
9.70011840964855E-07,-62.4565467834473
9.75011902000757E-07,-62.4200248718262
9.80011963036658E-07,-62.4728965759277
9.85012024072559E-07,-62.6305923461914
9.90012085108461E-07,-62.9085464477539
9.95012146144362E-07,-63.3449745178223
1.00001220718026E-06,-64.0030746459961
1.00501226821616E-06,-64.8482513427734
1.01001232925207E-06,-65.8391723632813
1.01501239028797E-06,-66.9344863891602
1.02001245132387E-06,-68.0928573608398
1.02501251235977E-06,-69.2729568481445
1.03001257339567E-06,-70.4334335327148
1.03501263443157E-06,-71.5329437255859
1.04001269546747E-06,-72.5301666259766
1.04501275650338E-06,-73.3837432861328
1.05001281753928E-06,-74.0523376464844
1.05501287857518E-06,-74.4946136474609
1.06001293961108E-06,-74.6720657348633
1.06501300064698E-06,-74.6017379760742
1.07001306168288E-06,-74.3212585449219
1.07501312271878E-06,-73.8623428344727
1.08001318375468E-06,-73.2566986083984
1.08501324479059E-06,-72.5360412597656
1.09001330582649E-06,-71.7320938110352
1.09501336686239E-06,-70.8765640258789
1.10001342789829E-06,-70.0011672973633
1.10501348893419E-06,-69.1376266479492
1.11001354997009E-06,-68.3176498413086
1.11501361100599E-06,-67.5729598999023
1.1200136720419E-06,-66.9352645874023
1.1250137330778E-06,-66.4362869262695
1.1300137941137E-06,-66.0333938598633
1.1350138551496E-06,-65.6623764038086
1.1400139161855E-06,-65.3225250244141
1.1450139772214E-06,-65.0131454467773
1.1500140382573E-06,-64.7335433959961
1.1550140992932E-06,-64.4830322265625
1.16001416032911E-06,-64.2609100341797
1.16501422136501E-06,-64.0664825439453
1.17001428240091E-06,-63.8990592956543
1.17501434343681E-06,-63.757942199707
1.18001440447271E-06,-63.6424331665039
1.18501446550861E-06,-63.5518417358398
1.19001452654451E-06,-63.4854736328125
1.19501458758041E-06,-63.451358795166
1.20001464861632E-06,-63.4735488891602
1.20501470965222E-06,-63.5458335876465
1.21001477068812E-06,-63.6596755981445
1.21501483172402E-06,-63.8065414428711
1.22001489275992E-06,-63.9778900146484
1.22501495379582E-06,-64.1651916503906
1.23001501483172E-06,-64.3599090576172
1.23501507586763E-06,-64.5535049438477
1.24001513690353E-06,-64.7374420166016
1.24501519793943E-06,-64.9031829833984
1.25001525897533E-06,-65.0421981811523
1.25501532001123E-06,-65.1459426879883
1.26001538104713E-06,-65.2074356079102
1.26501544208303E-06,-65.2415390014648
1.27001550311893E-06,-65.2561721801758
1.27501556415484E-06,-65.2538681030273
1.28001562519074E-06,-65.2371826171875
1.28501568622664E-06,-65.2086639404297
1.29001574726254E-06,-65.1708526611328
1.29501580829844E-06,-65.1262969970703
1.30001586933434E-06,-65.0775375366211
1.30501593037024E-06,-65.0271224975586
1.31001599140614E-06,-64.9776000976563
1.31501605244205E-06,-64.9315185546875
1.32001611347795E-06,-64.8914184570313
1.32501617451385E-06,-64.8598480224609
1.33001623554975E-06,-64.7965698242188
1.33501629658565E-06,-64.6715621948242
1.34001635762155E-06,-64.5026702880859
1.34501641865745E-06,-64.307746887207
1.35001647969336E-06,-64.1046524047852
1.35501654072926E-06,-63.9112358093262
1.36001660176516E-06,-63.7453498840332
1.36501666280106E-06,-63.6248550415039
1.37001672383696E-06,-63.5675926208496
1.37501678487286E-06,-63.5914268493652
1.38001684590876E-06,-63.7142066955566
1.38501690694466E-06,-63.9537811279297
1.39001696798057E-06,-64.328010559082
1.39501702901647E-06,-64.8829803466797
1.40001709005237E-06,-65.6969604492188
1.40501715108827E-06,-66.7284469604492
1.41001721212417E-06,-67.927604675293
1.41501727316007E-06,-69.24462890625
1.42001733419597E-06,-70.6296920776367
1.42501739523188E-06,-72.0329666137695
1.43001745626778E-06,-73.4046325683594
1.43501751730368E-06,-74.6948699951172
1.44001757833958E-06,-75.8538589477539
1.44501763937548E-06,-76.8317794799805
1.45001770041138E-06,-77.5788040161133
1.45501776144728E-06,-78.0451126098633
1.46001782248318E-06,-78.1835021972656
1.46501788351909E-06,-78.0053329467773
1.47001794455499E-06,-77.5558013916016
1.47501800559089E-06,-76.8763885498047
1.48001806662679E-06,-76.0085754394531
1.48501812766269E-06,-74.9938278198242
1.49001818869859E-06,-73.8736267089844
1.49501824973449E-06,-72.6894454956055
1.5000183107704E-06,-71.4827575683594
1.5050183718063E-06,-70.2950439453125
1.5100184328422E-06,-69.1677856445313
1.5150184938781E-06,-68.1424407958984
1.520018554914E-06,-67.260498046875
1.5250186159499E-06,-66.5634307861328
1.5300186769858E-06,-66.0080261230469
1.5350187380217E-06,-65.5187606811523
1.54001879905761E-06,-65.088623046875
1.54501886009351E-06,-64.7106170654297
1.55001892112941E-06,-64.3777389526367
1.55501898216531E-06,-64.0829849243164
1.56001904320121E-06,-63.8193473815918
1.56501910423711E-06,-63.5798263549805
1.57001916527301E-06,-63.3574256896973
1.57501922630891E-06,-63.1451301574707
1.58001928734482E-06,-62.9359436035156
1.58501934838072E-06,-62.7228622436523
1.59001940941662E-06,-62.4988861083984
1.59501947045252E-06,-62.2714538574219
1.60001953148842E-06,-62.0802383422852
1.60501959252432E-06,-61.9211921691895
1.61001965356022E-06,-61.7866630554199
1.61501971459613E-06,-61.6689796447754
1.62001977563203E-06,-61.5604820251465
1.62501983666793E-06,-61.4535064697266
1.63001989770383E-06,-61.3403968811035
1.63501995873973E-06,-61.2134819030762
1.64002001977563E-06,-61.0651016235352
1.64502008081153E-06,-60.8875961303711
1.65002014184743E-06,-60.6733016967773
1.65502020288334E-06,-60.4145545959473
1.66002026391924E-06,-60.1043891906738
1.66502032495514E-06,-59.7479553222656
1.67002038599104E-06,-59.3522605895996
1.67502044702694E-06,-58.9224739074707
1.68002050806284E-06,-58.4637680053711
1.68502056909874E-06,-57.9813232421875
1.69002063013465E-06,-57.4803085327148
1.69502069117055E-06,-56.9659042358398
1.70002075220645E-06,-56.4432792663574
1.70502081324235E-06,-55.917610168457
1.71002087427825E-06,-55.3940696716309
1.71502093531415E-06,-54.8778343200684
1.72002099635005E-06,-54.374080657959
1.72502105738595E-06,-53.8879776000977
1.73002111842186E-06,-53.40478515625
1.73502117945776E-06,-52.9087524414063
1.74002124049366E-06,-52.4035606384277
1.74502130152956E-06,-51.8928871154785
1.75002136256546E-06,-51.3804092407227
1.75502142360136E-06,-50.8698043823242
1.76002148463726E-06,-50.3647537231445
1.76502154567316E-06,-49.8689308166504
1.77002160670907E-06,-49.3860130310059
1.77502166774497E-06,-48.9196815490723
1.78002172878087E-06,-48.4736137390137
1.78502178981677E-06,-48.0514869689941
1.79002185085267E-06,-47.6569786071777
1.79502191188857E-06,-47.2887802124023
1.80002197292447E-06,-46.9332466125488
1.80502203396038E-06,-46.5904197692871
1.81002209499628E-06,-46.2615509033203
1.81502215603218E-06,-45.947883605957
1.82002221706808E-06,-45.6506767272949
1.82502227810398E-06,-45.371166229248
1.83002233913988E-06,-45.1106109619141
1.83502240017578E-06,-44.8702507019043
1.84002246121168E-06,-44.6513404846191
1.84502252224759E-06,-44.4551239013672
1.85002258328349E-06,-44.2828483581543
1.85502264431939E-06,-44.1357650756836
1.86002270535529E-06,-44.0146255493164
1.86502276639119E-06,-43.9140243530273
1.87002282742709E-06,-43.8327674865723
1.87502288846299E-06,-43.7716178894043
1.8800229494989E-06,-43.7313423156738
1.8850230105348E-06,-43.7127075195313
1.8900230715707E-06,-43.7164764404297
1.8950231326066E-06,-43.7434158325195
1.9000231936425E-06,-43.7942886352539
1.9050232546784E-06,-43.8698654174805
1.9100233157143E-06,-43.9709091186523
1.9150233767502E-06,-44.0981826782227
1.92002343778611E-06,-44.2524566650391
1.92502349882201E-06,-44.4344902038574
1.93002355985791E-06,-44.6440010070801
1.93502362089381E-06,-44.8799285888672
1.94002368192971E-06,-45.141902923584
1.94502374296561E-06,-45.4295463562012
1.95002380400151E-06,-45.7424850463867
1.95502386503741E-06,-46.0803413391113
1.96002392607332E-06,-46.4427375793457
1.96502398710922E-06,-46.8293037414551
1.97002404814512E-06,-47.2396545410156
1.97502410918102E-06,-47.6734237670898
1.98002417021692E-06,-48.1302337646484
1.98502423125282E-06,-48.6097030639648
1.99002429228872E-06,-49.1114616394043
1.99502435332463E-06,-49.6455574035645
2.00002441436053E-06,-50.2407302856445
2.00502447539643E-06,-50.8890800476074
2.01002453643233E-06,-51.5799026489258
2.01502459746823E-06,-52.3025054931641
2.02002465850413E-06,-53.0461845397949
2.02502471954003E-06,-53.8002471923828
2.03002478057593E-06,-54.5539894104004
2.03502484161184E-06,-55.2967147827148
2.04002490264774E-06,-56.0177230834961
2.04502496368364E-06,-56.7063179016113
2.05002502471954E-06,-57.3518028259277
2.05502508575544E-06,-57.943473815918
2.06002514679134E-06,-58.4731063842773
2.06502520782724E-06,-58.9655723571777
2.07002526886315E-06,-59.4308738708496
2.07502532989905E-06,-59.8699989318848
2.08002539093495E-06,-60.2839393615723
2.08502545197085E-06,-60.6736717224121
2.09002551300675E-06,-61.0401916503906
2.09502557404265E-06,-61.3844795227051
2.10002563507855E-06,-61.7075271606445
2.10502569611445E-06,-62.0103187561035
2.11002575715036E-06,-62.2938423156738
2.11502581818626E-06,-62.5590858459473
2.12002587922216E-06,-62.8070335388184
2.12502594025806E-06,-63.0386734008789
2.13002600129396E-06,-63.2184410095215
2.13502606232986E-06,-63.3211975097656
2.14002612336576E-06,-63.3635864257813
2.14502618440166E-06,-63.3622360229492
2.15002624543757E-06,-63.3337860107422
2.15502630647347E-06,-63.2948684692383
2.16002636750937E-06,-63.2621231079102
2.16502642854527E-06,-63.2521858215332
2.17002648958117E-06,-63.2816925048828
2.17502655061707E-06,-63.3672752380371
2.18002661165297E-06,-63.5255737304688
2.18502667268888E-06,-63.7732238769531
2.19002673372478E-06,-64.1268539428711
2.19502679476068E-06,-64.6216125488281
2.20002685579658E-06,-65.3088912963867
2.20502691683248E-06,-66.1562423706055
2.21002697786838E-06,-67.1255493164063
2.21502703890428E-06,-68.1787261962891
2.22002709994018E-06,-69.2776718139648
2.22502716097609E-06,-70.3842697143555
2.23002722201199E-06,-71.4604339599609
2.23502728304789E-06,-72.4680633544922
2.24002734408379E-06,-73.3690414428711
2.24502740511969E-06,-74.1252822875977
2.25002746615559E-06,-74.6986846923828
2.25502752719149E-06,-75.051139831543
2.2600275882274E-06,-75.1458358764648
2.2650276492633E-06,-74.9830093383789
2.2700277102992E-06,-74.5971069335938
2.2750277713351E-06,-74.0228424072266
2.280027832371E-06,-73.2949142456055
2.2850278934069E-06,-72.4480285644531
2.2900279544428E-06,-71.5168685913086
2.2950280154787E-06,-70.5361557006836
2.30002807651461E-06,-69.5405807495117
2.30502813755051E-06,-68.5648498535156
2.31002819858641E-06,-67.6436614990234
2.31502825962231E-06,-66.8117141723633
2.32002832065821E-06,-66.1037139892578
2.32502838169411E-06,-65.5543594360352
2.33002844273001E-06,-65.1060791015625
2.33502850376592E-06,-64.6812057495117
2.34002856480182E-06,-64.284294128418
2.34502862583772E-06,-63.9199180603027
2.35002868687362E-06,-63.5926361083984
2.35502874790952E-06,-63.3070030212402
2.36002880894542E-06,-63.0675926208496
2.36502886998132E-06,-62.8789558410645
2.37002893101722E-06,-62.7456665039063
2.37502899205313E-06,-62.6722793579102
2.38002905308903E-06,-62.6633605957031
2.38502911412493E-06,-62.7234687805176
2.39002917516083E-06,-62.8571701049805
2.39502923619673E-06,-63.0891876220703
2.40002929723263E-06,-63.475227355957
2.40502935826853E-06,-63.9943695068359
2.41002941930443E-06,-64.6200790405273
2.41502948034034E-06,-65.3258209228516
2.42002954137624E-06,-66.0850601196289
2.42502960241214E-06,-66.8712768554688
2.43002966344804E-06,-67.6579208374023
2.43502972448394E-06,-68.4184722900391
2.44002978551984E-06,-69.1263809204102
2.44502984655574E-06,-69.755126953125
2.45002990759165E-06,-70.2781753540039
2.45502996862755E-06,-70.6689910888672
2.46003002966345E-06,-70.9045944213867
2.46503009069935E-06,-71.016487121582
