Trace
Swept SA
A.19.55,N9020B
508 AB2 B25 B40 B85 DP2 DP4 EP2 FS1 FS2 MPB RTL ,01
Segment,0
Number of Points,81920
Sweep Time,0.0004096
Start Frequency,2400000000
Stop Frequency,2400000000
Average Count,0
Average Type,LogPower(Video)
RBW,3000000
RBW Filter,Gaussian
RBW Filter BW,3dB
VBW,3000000
Sweep Type,Swept
X Axis Scale,Lin
PreAmp State,Off
PreAmp Band,Low
Trigger Source,Ext1
Trigger Level,1.2
Trigger Slope,Positive
Trigger Delay,1E-06
Phase Noise Optimization,Fast
Swept If Gain,Low
FFT If Gain,Autorange
RF Coupling,AC
FFT Width,411900
Ext Ref,10000000
Input,RF
RF Calibrator,Off
Attenuation,6
Ref Level Offset,0
External Gain,0
Trace Type,Clearwrite
Detector,Normal
Trace Math,Off
Trace Math Oper1,Trace5
Trace Math Oper2,Trace6
Trace Math Offset,0
Normalize,Off
Trace Name,Trace1
X Axis Units,s
Y Axis Units,dBm
DATA
0,-87.6495971679688
5.00006103590132E-09,-87.6945953369141
1.00001220718026E-08,-87.6658554077148
1.50001831077039E-08,-87.5752105712891
2.00002441436053E-08,-87.4344940185547
2.50003051795066E-08,-87.2555313110352
3.00003662154079E-08,-87.0501556396484
3.50004272513092E-08,-86.830207824707
4.00004882872105E-08,-86.6075057983398
4.50005493231118E-08,-86.3938980102539
5.00006103590132E-08,-86.2012100219727
5.50006713949145E-08,-86.0412750244141
6.00007324308158E-08,-85.9227828979492
6.50007934667171E-08,-85.8134689331055
7.00008545026184E-08,-85.7022018432617
7.50009155385197E-08,-85.5895767211914
8.00009765744211E-08,-85.4761810302734
8.50010376103224E-08,-85.3626022338867
9.00010986462237E-08,-85.2494354248047
9.5001159682125E-08,-85.1372604370117
1.00001220718026E-07,-85.0266723632813
1.05001281753928E-07,-84.9182662963867
1.10001342789829E-07,-84.812629699707
1.1500140382573E-07,-84.7103500366211
1.20001464861632E-07,-84.6120147705078
1.25001525897533E-07,-84.5182113647461
1.30001586933434E-07,-84.4241638183594
1.35001647969336E-07,-84.3259735107422
1.40001709005237E-07,-84.2255706787109
1.45001770041138E-07,-84.1248779296875
1.50001831077039E-07,-84.0258407592773
1.55001892112941E-07,-83.9303817749023
1.60001953148842E-07,-83.8404235839844
1.65002014184743E-07,-83.7579040527344
1.70002075220645E-07,-83.6847534179688
1.75002136256546E-07,-83.6229019165039
1.80002197292447E-07,-83.5742797851563
1.85002258328349E-07,-83.5408172607422
1.9000231936425E-07,-83.5244369506836
1.95002380400151E-07,-83.5218353271484
2.00002441436053E-07,-83.5185852050781
2.05002502471954E-07,-83.5168228149414
2.10002563507855E-07,-83.5199966430664
2.15002624543757E-07,-83.5315628051758
2.20002685579658E-07,-83.5549850463867
2.25002746615559E-07,-83.5937118530273
2.30002807651461E-07,-83.6511993408203
2.35002868687362E-07,-83.7309188842773
2.40002929723263E-07,-83.8363189697266
2.45002990759165E-07,-83.9708557128906
2.50003051795066E-07,-84.1379852294922
2.55003112830967E-07,-84.341178894043
2.60003173866868E-07,-84.5878677368164
2.6500323490277E-07,-84.9264526367188
2.70003295938671E-07,-85.3544311523438
2.75003356974572E-07,-85.8515701293945
2.80003418010474E-07,-86.3976440429688
2.85003479046375E-07,-86.972412109375
2.90003540082276E-07,-87.5556488037109
2.95003601118178E-07,-88.1271133422852
3.00003662154079E-07,-88.6665802001953
3.0500372318998E-07,-89.15380859375
3.10003784225882E-07,-89.5685806274414
3.15003845261783E-07,-89.8906478881836
3.20003906297684E-07,-90.0997848510742
3.25003967333586E-07,-90.1757507324219
3.30004028369487E-07,-90.1128082275391
3.35004089405388E-07,-89.9296569824219
3.4000415044129E-07,-89.6427688598633
3.45004211477191E-07,-89.2686233520508
3.50004272513092E-07,-88.8236770629883
3.55004333548993E-07,-88.3244094848633
3.60004394584895E-07,-87.7872924804688
3.65004455620796E-07,-87.2287902832031
3.70004516656697E-07,-86.6653747558594
3.75004577692599E-07,-86.1135101318359
3.800046387285E-07,-85.5896835327148
3.85004699764401E-07,-85.1103515625
3.90004760800303E-07,-84.6919860839844
3.95004821836204E-07,-84.3338623046875
4.00004882872105E-07,-83.9890213012695
4.05004943908007E-07,-83.6535720825195
4.10005004943908E-07,-83.32763671875
4.15005065979809E-07,-83.0113372802734
4.20005127015711E-07,-82.7047882080078
4.25005188051612E-07,-82.4081192016602
4.30005249087513E-07,-82.1214370727539
4.35005310123415E-07,-81.8448715209961
4.40005371159316E-07,-81.5785293579102
4.45005432195217E-07,-81.3225402832031
4.50005493231119E-07,-81.077018737793
4.5500555426702E-07,-80.8420791625977
4.60005615302921E-07,-80.6181411743164
4.65005676338822E-07,-80.4085922241211
4.70005737374724E-07,-80.21337890625
4.75005798410625E-07,-80.0311889648438
4.80005859446526E-07,-79.860710144043
4.85005920482428E-07,-79.7006378173828
4.90005981518329E-07,-79.5496597290039
4.9500604255423E-07,-79.4064559936523
5.00006103590132E-07,-79.2697219848633
5.05006164626033E-07,-79.1381530761719
5.10006225661934E-07,-79.0104293823242
5.15006286697836E-07,-78.8852462768555
5.20006347733737E-07,-78.7612915039063
5.25006408769638E-07,-78.6372528076172
5.3000646980554E-07,-78.5121917724609
5.35006530841441E-07,-78.3869400024414
5.40006591877342E-07,-78.2628402709961
5.45006652913243E-07,-78.1412353515625
5.50006713949145E-07,-78.0234603881836
5.55006774985046E-07,-77.9108657836914
5.60006836020948E-07,-77.8047866821289
5.65006897056849E-07,-77.7065734863281
5.7000695809275E-07,-77.617561340332
5.75007019128651E-07,-77.5391006469727
5.80007080164553E-07,-77.472526550293
5.85007141200454E-07,-77.4191818237305
5.90007202236355E-07,-77.3804092407227
5.95007263272257E-07,-77.3555450439453
6.00007324308158E-07,-77.3390808105469
6.05007385344059E-07,-77.331184387207
6.10007446379961E-07,-77.33251953125
6.15007507415862E-07,-77.3437423706055
6.20007568451763E-07,-77.3655090332031
6.25007629487665E-07,-77.3984680175781
6.30007690523566E-07,-77.4432907104492
6.35007751559467E-07,-77.5006332397461
6.40007812595369E-07,-77.5711441040039
6.4500787363127E-07,-77.6554870605469
6.50007934667171E-07,-77.7543182373047
6.55007995703072E-07,-77.8683013916016
6.60008056738974E-07,-77.9987487792969
6.65008117774875E-07,-78.1537628173828
6.70008178810776E-07,-78.3328552246094
6.75008239846678E-07,-78.5325622558594
6.80008300882579E-07,-78.7494354248047
6.8500836191848E-07,-78.9800109863281
6.90008422954382E-07,-79.2208251953125
6.95008483990283E-07,-79.4684371948242
7.00008545026184E-07,-79.7193832397461
7.05008606062086E-07,-79.9701995849609
7.10008667097987E-07,-80.2174301147461
7.15008728133888E-07,-80.4576263427734
7.2000878916979E-07,-80.6873168945313
7.25008850205691E-07,-80.9030609130859
7.30008911241592E-07,-81.1143798828125
7.35008972277494E-07,-81.3315963745117
7.40009033313395E-07,-81.5523910522461
7.45009094349296E-07,-81.7744750976563
7.50009155385198E-07,-81.9955291748047
7.55009216421099E-07,-82.213264465332
7.60009277457E-07,-82.4253616333008
7.65009338492901E-07,-82.6295318603516
7.70009399528803E-07,-82.8234634399414
7.75009460564704E-07,-83.0048446655273
7.80009521600605E-07,-83.17138671875
7.85009582636507E-07,-83.3207778930664
7.90009643672408E-07,-83.4507141113281
7.95009704708309E-07,-83.5558471679688
8.00009765744211E-07,-83.6277465820313
8.05009826780112E-07,-83.6712875366211
8.10009887816013E-07,-83.6922607421875
8.15009948851915E-07,-83.6964340209961
8.20010009887816E-07,-83.6896209716797
8.25010070923717E-07,-83.6775817871094
8.30010131959619E-07,-83.6661224365234
8.3501019299552E-07,-83.661018371582
8.40010254031421E-07,-83.6680603027344
8.45010315067323E-07,-83.6930389404297
8.50010376103224E-07,-83.7417297363281
8.55010437139125E-07,-83.8199310302734
8.60010498175026E-07,-83.9321899414063
8.65010559210928E-07,-84.066276550293
8.70010620246829E-07,-84.216796875
8.7501068128273E-07,-84.3827896118164
8.80010742318632E-07,-84.5632858276367
8.85010803354533E-07,-84.7573165893555
8.90010864390434E-07,-84.9639282226563
8.95010925426336E-07,-85.1821441650391
9.00010986462237E-07,-85.411003112793
9.05011047498138E-07,-85.6495361328125
9.1001110853404E-07,-85.8967819213867
9.15011169569941E-07,-86.1517715454102
9.20011230605842E-07,-86.4135437011719
9.25011291641744E-07,-86.6811294555664
9.30011352677645E-07,-86.9837341308594
9.35011413713546E-07,-87.342170715332
9.40011474749448E-07,-87.7428817749023
9.45011535785349E-07,-88.1723098754883
9.5001159682125E-07,-88.6169052124023
9.55011657857151E-07,-89.0631103515625
9.60011718893053E-07,-89.4973754882813
9.65011779928954E-07,-89.906135559082
9.70011840964855E-07,-90.2758331298828
9.75011902000757E-07,-90.5929260253906
9.80011963036658E-07,-90.8438568115234
9.85012024072559E-07,-91.0150604248047
9.90012085108461E-07,-91.0929870605469
9.95012146144362E-07,-91.0629806518555
1.00001220718026E-06,-90.9216232299805
1.00501226821616E-06,-90.6842651367188
1.01001232925207E-06,-90.3670654296875
1.01501239028797E-06,-89.9861907958984
1.02001245132387E-06,-89.5578002929688
1.02501251235977E-06,-89.0980606079102
1.03001257339567E-06,-88.6231384277344
1.03501263443157E-06,-88.1492004394531
1.04001269546747E-06,-87.6923980712891
1.04501275650338E-06,-87.268913269043
1.05001281753928E-06,-86.894889831543
1.05501287857518E-06,-86.5865097045898
1.06001293961108E-06,-86.3564071655273
1.06501300064698E-06,-86.1694030761719
1.07001306168288E-06,-86.0104217529297
1.07501312271878E-06,-85.8771209716797
1.08001318375468E-06,-85.7671585083008
1.08501324479059E-06,-85.6781921386719
1.09001330582649E-06,-85.6078872680664
1.09501336686239E-06,-85.5538864135742
1.10001342789829E-06,-85.5138549804688
1.10501348893419E-06,-85.4854583740234
1.11001354997009E-06,-85.4663467407227
1.11501361100599E-06,-85.4541702270508
1.1200136720419E-06,-85.4466018676758
1.1250137330778E-06,-85.441291809082
1.1300137941137E-06,-85.4556121826172
1.1350138551496E-06,-85.5039291381836
1.1400139161855E-06,-85.5793533325195
1.1450139772214E-06,-85.6750335693359
1.1500140382573E-06,-85.7840881347656
1.1550140992932E-06,-85.899658203125
1.16001416032911E-06,-86.0148620605469
1.16501422136501E-06,-86.1228408813477
1.17001428240091E-06,-86.2167282104492
1.17501434343681E-06,-86.2896423339844
1.18001440447271E-06,-86.3347244262695
1.18501446550861E-06,-86.3451080322266
1.19001452654451E-06,-86.3139114379883
1.19501458758041E-06,-86.2374114990234
1.20001464861632E-06,-86.1240997314453
1.20501470965222E-06,-85.9788055419922
1.21001477068812E-06,-85.8057556152344
1.21501483172402E-06,-85.6092071533203
1.22001489275992E-06,-85.3933944702148
1.22501495379582E-06,-85.1625671386719
1.23001501483172E-06,-84.9209671020508
1.23501507586763E-06,-84.6728363037109
1.24001513690353E-06,-84.4224243164063
1.24501519793943E-06,-84.1739654541016
1.25001525897533E-06,-83.9317016601563
1.25501532001123E-06,-83.6998901367188
1.26001538104713E-06,-83.4813842773438
1.26501544208303E-06,-83.2616882324219
1.27001550311893E-06,-83.0367584228516
1.27501556415484E-06,-82.807861328125
1.28001562519074E-06,-82.5762329101563
1.28501568622664E-06,-82.3431167602539
1.29001574726254E-06,-82.1097717285156
1.29501580829844E-06,-81.8774337768555
1.30001586933434E-06,-81.6473617553711
1.30501593037024E-06,-81.4207916259766
1.31001599140614E-06,-81.1989822387695
1.31501605244205E-06,-80.9831695556641
1.32001611347795E-06,-80.7746124267578
1.32501617451385E-06,-80.5745468139648
1.33001623554975E-06,-80.3780746459961
1.33501629658565E-06,-80.1804885864258
1.34001635762155E-06,-79.9833374023438
1.34501641865745E-06,-79.7881546020508
1.35001647969336E-06,-79.5964889526367
1.35501654072926E-06,-79.4098815917969
1.36001660176516E-06,-79.2298736572266
1.36501666280106E-06,-79.0580062866211
1.37001672383696E-06,-78.8958206176758
1.37501678487286E-06,-78.7448654174805
1.38001684590876E-06,-78.6066741943359
1.38501690694466E-06,-78.4827880859375
1.39001696798057E-06,-78.3747634887695
1.39501702901647E-06,-78.2789154052734
1.40001709005237E-06,-78.180908203125
1.40501715108827E-06,-78.0832595825195
1.41001721212417E-06,-77.9898147583008
1.41501727316007E-06,-77.9044342041016
1.42001733419597E-06,-77.8309555053711
1.42501739523188E-06,-77.7732391357422
1.43001745626778E-06,-77.7351455688477
1.43501751730368E-06,-77.7205123901367
1.44001757833958E-06,-77.7332077026367
1.44501763937548E-06,-77.7770767211914
1.45001770041138E-06,-77.8559722900391
1.45501776144728E-06,-77.9737396240234
1.46001782248318E-06,-78.1361694335938
1.46501788351909E-06,-78.3674011230469
1.47001794455499E-06,-78.6642608642578
1.47501800559089E-06,-79.0147171020508
1.48001806662679E-06,-79.4067230224609
1.48501812766269E-06,-79.8282470703125
1.49001818869859E-06,-80.2672500610352
1.49501824973449E-06,-80.7116851806641
1.5000183107704E-06,-81.1495208740234
1.5050183718063E-06,-81.568717956543
1.5100184328422E-06,-81.9572296142578
1.5150184938781E-06,-82.3030242919922
1.520018554914E-06,-82.5940628051758
1.5250186159499E-06,-82.8183059692383
1.5300186769858E-06,-82.9941101074219
1.5350187380217E-06,-83.1473388671875
1.54001879905761E-06,-83.2771835327148
1.54501886009351E-06,-83.3828582763672
1.55001892112941E-06,-83.4635543823242
1.55501898216531E-06,-83.5184783935547
1.56001904320121E-06,-83.5468292236328
1.56501910423711E-06,-83.5478134155273
1.57001916527301E-06,-83.5206298828125
1.57501922630891E-06,-83.464485168457
1.58001928734482E-06,-83.3785781860352
1.58501934838072E-06,-83.2621078491211
1.59001940941662E-06,-83.1142807006836
1.59501947045252E-06,-82.9260787963867
1.60001953148842E-06,-82.6748580932617
1.60501959252432E-06,-82.3680038452148
1.61001965356022E-06,-82.01513671875
1.61501971459613E-06,-81.6259078979492
1.62001977563203E-06,-81.2099456787109
1.62501983666793E-06,-80.7768783569336
1.63001989770383E-06,-80.3363494873047
1.63501995873973E-06,-79.8979797363281
1.64002001977563E-06,-79.4714050292969
1.64502008081153E-06,-79.0662689208984
1.65002014184743E-06,-78.6921997070313
1.65502020288334E-06,-78.3588333129883
1.66002026391924E-06,-78.0728302001953
1.66502032495514E-06,-77.8031311035156
1.67002038599104E-06,-77.5406036376953
1.67502044702694E-06,-77.2874298095703
1.68002050806284E-06,-77.045783996582
1.68502056909874E-06,-76.8178329467773
1.69002063013465E-06,-76.6057510375977
1.69502069117055E-06,-76.4117202758789
1.70002075220645E-06,-76.237907409668
1.70502081324235E-06,-76.0864868164063
1.71002087427825E-06,-75.9596328735352
1.71502093531415E-06,-75.8595199584961
1.72002099635005E-06,-75.7883224487305
1.72502105738595E-06,-75.7482147216797
1.73002111842186E-06,-75.7363357543945
1.73502117945776E-06,-75.7483291625977
1.74002124049366E-06,-75.7841110229492
1.74502130152956E-06,-75.8436126708984
1.75002136256546E-06,-75.9267425537109
1.75502142360136E-06,-76.0334396362305
1.76002148463726E-06,-76.1636047363281
1.76502154567316E-06,-76.3171768188477
1.77002160670907E-06,-76.4940719604492
1.77502166774497E-06,-76.6942138671875
1.78002172878087E-06,-76.9175262451172
1.78502178981677E-06,-77.1639251708984
1.79002185085267E-06,-77.4333267211914
1.79502191188857E-06,-77.7415237426758
1.80002197292447E-06,-78.1321868896484
1.80502203396038E-06,-78.5928039550781
1.81002209499628E-06,-79.1065521240234
1.81502215603218E-06,-79.656623840332
1.82002221706808E-06,-80.2262115478516
1.82502227810398E-06,-80.7985153198242
1.83002233913988E-06,-81.3567199707031
1.83502240017578E-06,-81.8840255737305
1.84002246121168E-06,-82.3636093139648
1.84502252224759E-06,-82.778678894043
1.85002258328349E-06,-83.112419128418
1.85502264431939E-06,-83.348014831543
1.86002270535529E-06,-83.4692840576172
1.86502276639119E-06,-83.4767379760742
1.87002282742709E-06,-83.3855972290039
1.87502288846299E-06,-83.2110214233398
1.8800229494989E-06,-82.9681549072266
1.8850230105348E-06,-82.6721496582031
1.8900230715707E-06,-82.3381729125977
1.8950231326066E-06,-81.9813766479492
1.9000231936425E-06,-81.6169128417969
1.9050232546784E-06,-81.2599411010742
1.9100233157143E-06,-80.9256057739258
1.9150233767502E-06,-80.6290664672852
1.92002343778611E-06,-80.3854904174805
1.92502349882201E-06,-80.2100143432617
1.93002355985791E-06,-80.0734176635742
1.93502362089381E-06,-79.9390106201172
1.94002368192971E-06,-79.8107757568359
1.94502374296561E-06,-79.6927032470703
1.95002380400151E-06,-79.5887603759766
1.95502386503741E-06,-79.5029449462891
1.96002392607332E-06,-79.4392242431641
1.96502398710922E-06,-79.4015884399414
1.97002404814512E-06,-79.3940200805664
1.97502410918102E-06,-79.4205017089844
1.98002417021692E-06,-79.4850158691406
1.98502423125282E-06,-79.5915374755859
1.99002429228872E-06,-79.7440490722656
1.99502435332463E-06,-79.9519424438477
2.00002441436053E-06,-80.2301864624023
2.00502447539643E-06,-80.5702438354492
2.01002453643233E-06,-80.9619598388672
2.01502459746823E-06,-81.3951797485352
2.02002465850413E-06,-81.859748840332
2.02502471954003E-06,-82.3455123901367
2.03002478057593E-06,-82.8423156738281
2.03502484161184E-06,-83.3400039672852
2.04002490264774E-06,-83.8284225463867
2.04502496368364E-06,-84.2974166870117
2.05002502471954E-06,-84.7368316650391
2.05502508575544E-06,-85.1365127563477
2.06002514679134E-06,-85.491096496582
2.06502520782724E-06,-85.852912902832
2.07002526886315E-06,-86.2318344116211
2.07502532989905E-06,-86.61865234375
2.08002539093495E-06,-87.0041732788086
2.08502545197085E-06,-87.3791885375977
2.09002551300675E-06,-87.734504699707
2.09502557404265E-06,-88.060905456543
2.10002563507855E-06,-88.3491973876953
2.10502569611445E-06,-88.5901870727539
2.11002575715036E-06,-88.7746505737305
2.11502581818626E-06,-88.8934097290039
2.12002587922216E-06,-88.9372482299805
2.12502594025806E-06,-88.8969650268555
2.13002600129396E-06,-88.7582778930664
2.13502606232986E-06,-88.5218048095703
2.14002612336576E-06,-88.2007293701172
2.14502618440166E-06,-87.8081970214844
2.15002624543757E-06,-87.3573989868164
2.15502630647347E-06,-86.8614883422852
2.16002636750937E-06,-86.3336410522461
2.16502642854527E-06,-85.7870178222656
2.17002648958117E-06,-85.2347946166992
2.17502655061707E-06,-84.6901397705078
2.18002661165297E-06,-84.1662139892578
2.18502667268888E-06,-83.6761856079102
2.19002673372478E-06,-83.2332305908203
2.19502679476068E-06,-82.8331680297852
2.20002685579658E-06,-82.4285049438477
2.20502691683248E-06,-82.0190200805664
2.21002697786838E-06,-81.6086349487305
2.21502703890428E-06,-81.2012939453125
2.22002709994018E-06,-80.8009338378906
2.22502716097609E-06,-80.4114761352539
2.23002722201199E-06,-80.0368728637695
2.23502728304789E-06,-79.6810455322266
2.24002734408379E-06,-79.3479309082031
2.24502740511969E-06,-79.0414657592773
2.25002746615559E-06,-78.7655868530273
2.25502752719149E-06,-78.5242233276367
2.2600275882274E-06,-78.3199691772461
2.2650276492633E-06,-78.138557434082
2.2700277102992E-06,-77.9762344360352
2.2750277713351E-06,-77.8344497680664
2.280027832371E-06,-77.7146530151367
2.2850278934069E-06,-77.6182861328125
2.2900279544428E-06,-77.5467910766602
2.2950280154787E-06,-77.5016098022461
2.30002807651461E-06,-77.4841995239258
2.30502813755051E-06,-77.4959869384766
2.31002819858641E-06,-77.5384292602539
2.31502825962231E-06,-77.6129608154297
2.32002832065821E-06,-77.7210388183594
2.32502838169411E-06,-77.8640975952148
2.33002844273001E-06,-78.0636672973633
2.33502850376592E-06,-78.3326721191406
2.34002856480182E-06,-78.6596755981445
2.34502862583772E-06,-79.0332183837891
2.35002868687362E-06,-79.4418563842773
2.35502874790952E-06,-79.8741455078125
2.36002880894542E-06,-80.3186340332031
2.36502886998132E-06,-80.7638778686523
2.37002893101722E-06,-81.1984329223633
2.37502899205313E-06,-81.6108474731445
2.38002905308903E-06,-81.9896697998047
2.38502911412493E-06,-82.3234558105469
2.39002917516083E-06,-82.6007614135742
2.39502923619673E-06,-82.8237152099609
2.40002929723263E-06,-83.0294647216797
2.40502935826853E-06,-83.2193984985352
2.41002941930443E-06,-83.3917007446289
2.41502948034034E-06,-83.544548034668
2.42002954137624E-06,-83.6761245727539
2.42502960241214E-06,-83.7846069335938
2.43002966344804E-06,-83.8681793212891
2.43502972448394E-06,-83.9250106811523
2.44002978551984E-06,-83.9532928466797
2.44502984655574E-06,-83.9512023925781
2.45002990759165E-06,-83.9169158935547
2.45502996862755E-06,-83.8486099243164
2.46003002966345E-06,-83.7431640625
2.46503009069935E-06,-83.5844650268555
2.47003015173525E-06,-83.3739624023438
