Trace
Swept SA
A.19.55,N9020B
508 AB2 B25 B40 B85 DP2 DP4 EP2 FS1 FS2 MPB RTL ,01
Segment,0
Number of Points,81920
Sweep Time,0.000452266667
Start Frequency,2400000000
Stop Frequency,2400000000
Average Count,0
Average Type,LogPower(Video)
RBW,3000000
RBW Filter,Gaussian
RBW Filter BW,3dB
VBW,3000000
Sweep Type,Swept
X Axis Scale,Lin
PreAmp State,Off
PreAmp Band,Low
Trigger Source,Ext1
Trigger Level,1.2
Trigger Slope,Positive
Trigger Delay,1E-06
Phase Noise Optimization,Fast
Swept If Gain,Low
FFT If Gain,Autorange
RF Coupling,AC
FFT Width,411900
Ext Ref,10000000
Input,RF
RF Calibrator,Off
Attenuation,6
Ref Level Offset,0
External Gain,0
Trace Type,Clearwrite
Detector,Normal
Trace Math,Off
Trace Math Oper1,Trace5
Trace Math Oper2,Trace6
Trace Math Offset,0
Normalize,Off
Trace Name,Trace1
X Axis Units,s
Y Axis Units,dBm
DATA
0,-75.8303451538086
5.5209007312101E-09,-76.3234405517578
1.10418014624202E-08,-76.8253784179688
1.65627021936303E-08,-77.3300704956055
2.20836029248404E-08,-77.8314590454102
2.76045036560505E-08,-78.3234558105469
3.31254043872606E-08,-78.7999954223633
3.86463051184707E-08,-79.2549896240234
4.41672058496808E-08,-79.682373046875
4.96881065808909E-08,-80.0760650634766
5.5209007312101E-08,-80.4299926757813
6.07299080433111E-08,-80.7483596801758
6.62508087745212E-08,-81.0460891723633
7.17717095057313E-08,-81.3228759765625
7.72926102369414E-08,-81.5780868530273
8.28135109681515E-08,-81.8111114501953
8.83344116993616E-08,-82.0213165283203
9.38553124305717E-08,-82.2080841064453
9.93762131617818E-08,-82.3707962036133
1.04897113892992E-07,-82.5088195800781
1.10418014624202E-07,-82.6215362548828
1.15938915355412E-07,-82.7083358764648
1.21459816086622E-07,-82.7685775756836
1.26980716817832E-07,-82.7962493896484
1.32501617549042E-07,-82.7817306518555
1.38022518280252E-07,-82.7300262451172
1.43543419011463E-07,-82.6466217041016
1.49064319742673E-07,-82.5370254516602
1.54585220473883E-07,-82.4067459106445
1.60106121205093E-07,-82.2612686157227
1.65627021936303E-07,-82.1061172485352
1.71147922667513E-07,-81.94677734375
1.76668823398723E-07,-81.7887496948242
1.82189724129933E-07,-81.6375503540039
1.87710624861143E-07,-81.498664855957
1.93231525592353E-07,-81.3658828735352
1.98752426323564E-07,-81.2109603881836
2.04273327054774E-07,-81.038215637207
2.09794227785984E-07,-80.8541641235352
2.15315128517194E-07,-80.6653213500977
2.20836029248404E-07,-80.4782028198242
2.26356929979614E-07,-80.2993240356445
2.31877830710824E-07,-80.1352005004883
2.37398731442034E-07,-79.9923477172852
2.42919632173244E-07,-79.8772811889648
2.48440532904454E-07,-79.7965240478516
2.53961433635664E-07,-79.756591796875
2.59482334366875E-07,-79.7640533447266
2.65003235098085E-07,-79.8195953369141
2.70524135829295E-07,-79.9162673950195
2.76045036560505E-07,-80.0467529296875
2.81565937291715E-07,-80.203742980957
2.87086838022925E-07,-80.3799362182617
2.92607738754135E-07,-80.5680313110352
2.98128639485345E-07,-80.7607040405273
3.03649540216555E-07,-80.9506607055664
3.09170440947765E-07,-81.1305847167969
3.14691341678976E-07,-81.2931747436523
3.20212242410186E-07,-81.4311141967773
3.25733143141396E-07,-81.5451126098633
3.31254043872606E-07,-81.6683731079102
3.36774944603816E-07,-81.8004302978516
3.42295845335026E-07,-81.9353713989258
3.47816746066236E-07,-82.0672836303711
3.53337646797446E-07,-82.1902694702148
3.58858547528656E-07,-82.2984237670898
3.64379448259866E-07,-82.3858261108398
3.69900348991077E-07,-82.4465713500977
3.75421249722287E-07,-82.4747619628906
3.80942150453497E-07,-82.464485168457
3.86463051184707E-07,-82.4098281860352
3.91983951915917E-07,-82.30322265625
3.97504852647127E-07,-82.133430480957
4.03025753378337E-07,-81.9078521728516
4.08546654109547E-07,-81.6367340087891
4.14067554840757E-07,-81.330322265625
4.19588455571967E-07,-80.9988555908203
4.25109356303178E-07,-80.652587890625
4.30630257034388E-07,-80.3017501831055
4.36151157765598E-07,-79.9565963745117
4.41672058496808E-07,-79.6273651123047
4.47192959228018E-07,-79.3242950439453
4.52713859959228E-07,-79.0576477050781
4.58234760690438E-07,-78.8326950073242
4.63755661421648E-07,-78.6114196777344
4.69276562152858E-07,-78.3879013061523
4.74797462884068E-07,-78.1673965454102
4.80318363615278E-07,-77.9551849365234
4.85839264346489E-07,-77.7565383911133
4.91360165077699E-07,-77.5767288208008
4.96881065808909E-07,-77.4210205078125
5.02401966540119E-07,-77.2946929931641
5.07922867271329E-07,-77.2030181884766
5.13443768002539E-07,-77.1512603759766
5.18964668733749E-07,-77.1446990966797
5.24485569464959E-07,-77.1887054443359
5.30006470196169E-07,-77.2867050170898
5.3552737092738E-07,-77.4339599609375
5.4104827165859E-07,-77.624397277832
5.465691723898E-07,-77.851936340332
5.5209007312101E-07,-78.1105117797852
5.5761097385222E-07,-78.39404296875
5.6313187458343E-07,-78.6964492797852
5.6865277531464E-07,-79.0116577148438
5.7417367604585E-07,-79.3336029052734
5.7969457677706E-07,-79.6561965942383
5.8521547750827E-07,-79.9733657836914
5.90736378239481E-07,-80.2818069458008
5.96257278970691E-07,-80.6357192993164
6.01778179701901E-07,-81.0453262329102
6.07299080433111E-07,-81.4936141967773
6.12819981164321E-07,-81.9635543823242
6.18340881895531E-07,-82.438117980957
6.23861782626741E-07,-82.900276184082
6.29382683357951E-07,-83.3330078125
6.34903584089161E-07,-83.7192764282227
6.40424484820371E-07,-84.0420684814453
6.45945385551581E-07,-84.2843399047852
6.51466286282792E-07,-84.429084777832
6.56987187014002E-07,-84.4590530395508
6.62508087745212E-07,-84.3567047119141
6.68028988476422E-07,-84.1338272094727
6.73549889207632E-07,-83.8115768432617
6.79070789938842E-07,-83.4110717773438
6.84591690670052E-07,-82.9534606933594
6.90112591401262E-07,-82.4598922729492
6.95633492132472E-07,-81.9514846801758
7.01154392863682E-07,-81.4493942260742
7.06675293594893E-07,-80.9747467041016
7.12196194326103E-07,-80.5486907958984
7.17717095057313E-07,-80.1923675537109
7.23237995788523E-07,-79.9265975952148
7.28758896519733E-07,-79.7271194458008
7.34279797250943E-07,-79.5649108886719
7.39800697982153E-07,-79.4357604980469
7.45321598713363E-07,-79.3354568481445
7.50842499444573E-07,-79.2597808837891
7.56363400175783E-07,-79.2045288085938
7.61884300906994E-07,-79.1654815673828
7.67405201638204E-07,-79.1384201049805
7.72926102369414E-07,-79.119140625
7.78447003100624E-07,-79.1034240722656
7.83967903831834E-07,-79.0870590209961
7.89488804563044E-07,-79.0658416748047
7.95009705294254E-07,-79.0505905151367
8.00530606025464E-07,-79.0519714355469
8.06051506756674E-07,-79.0670928955078
8.11572407487884E-07,-79.0930862426758
8.17093308219094E-07,-79.1270599365234
8.22614208950305E-07,-79.166130065918
8.28135109681515E-07,-79.2074203491211
8.33656010412725E-07,-79.2480392456055
8.39176911143935E-07,-79.2851181030273
8.44697811875145E-07,-79.3157577514648
8.50218712606355E-07,-79.3370895385742
8.55739613337565E-07,-79.3462219238281
8.61260514068775E-07,-79.3396759033203
8.66781414799985E-07,-79.3179702758789
8.72302315531195E-07,-79.2848510742188
8.77823216262406E-07,-79.2440490722656
8.83344116993616E-07,-79.1992950439453
8.88865017724826E-07,-79.1543426513672
8.94385918456036E-07,-79.1129150390625
8.99906819187246E-07,-79.0787582397461
9.05427719918456E-07,-79.0556106567383
9.10948620649666E-07,-79.0472030639648
9.16469521380876E-07,-79.0572814941406
9.21990422112086E-07,-79.0895767211914
9.27511322843296E-07,-79.1479187011719
9.33032223574507E-07,-79.2314834594727
9.38553124305717E-07,-79.3359069824219
9.44074025036927E-07,-79.4568023681641
9.49594925768137E-07,-79.5897979736328
9.55115826499347E-07,-79.7305068969727
9.60636727230557E-07,-79.8745422363281
9.66157627961767E-07,-80.0175247192383
9.71678528692977E-07,-80.1550674438477
9.77199429424187E-07,-80.2827987670898
9.82720330155397E-07,-80.3963317871094
9.88241230886608E-07,-80.4912796020508
9.93762131617818E-07,-80.5691375732422
9.99283032349028E-07,-80.6403427124023
1.00480393308024E-06,-80.7052688598633
1.01032483381145E-06,-80.7639312744141
1.01584573454266E-06,-80.8163681030273
1.02136663527387E-06,-80.8625717163086
1.02688753600508E-06,-80.9025802612305
1.03240843673629E-06,-80.9364013671875
1.0379293374675E-06,-80.9640502929688
1.04345023819871E-06,-80.9855499267578
1.04897113892992E-06,-81.0009231567383
1.05449203966113E-06,-81.0101699829102
1.06001294039234E-06,-81.0098190307617
1.06553384112355E-06,-80.9920654296875
1.07105474185476E-06,-80.9598922729492
1.07657564258597E-06,-80.9168701171875
1.08209654331718E-06,-80.866584777832
1.08761744404839E-06,-80.812614440918
1.0931383447796E-06,-80.7585220336914
1.09865924551081E-06,-80.7079010009766
1.10418014624202E-06,-80.6643295288086
1.10970104697323E-06,-80.6313705444336
1.11522194770444E-06,-80.6126098632813
1.12074284843565E-06,-80.6116256713867
1.12626374916686E-06,-80.6299819946289
1.13178464989807E-06,-80.6618881225586
1.13730555062928E-06,-80.7053985595703
1.14282645136049E-06,-80.7591018676758
1.1483473520917E-06,-80.8215789794922
1.15386825282291E-06,-80.8914260864258
1.15938915355412E-06,-80.9672164916992
1.16491005428533E-06,-81.0475463867188
1.17043095501654E-06,-81.1309967041016
1.17595185574775E-06,-81.2161407470703
1.18147275647896E-06,-81.3015823364258
1.18699365721017E-06,-81.3858947753906
1.19251455794138E-06,-81.4728164672852
1.19803545867259E-06,-81.5827102661133
1.2035563594038E-06,-81.7119445800781
1.20907726013501E-06,-81.8536834716797
1.21459816086622E-06,-82.0010986328125
1.22011906159743E-06,-82.1473541259766
1.22563996232864E-06,-82.2856292724609
1.23116086305985E-06,-82.4090881347656
1.23668176379106E-06,-82.5109024047852
1.24220266452227E-06,-82.5842437744141
1.24772356525348E-06,-82.6222686767578
1.25324446598469E-06,-82.6181640625
1.2587653667159E-06,-82.5646667480469
1.26428626744711E-06,-82.4579238891602
1.26980716817832E-06,-82.3051452636719
1.27532806890953E-06,-82.1146545410156
1.28084896964074E-06,-81.8947525024414
1.28636987037195E-06,-81.6537780761719
1.29189077110316E-06,-81.400032043457
1.29741167183437E-06,-81.141845703125
1.30293257256558E-06,-80.8875274658203
1.30845347329679E-06,-80.6454010009766
1.313974374028E-06,-80.4237747192383
1.31949527475921E-06,-80.2309875488281
1.32501617549042E-06,-80.0713348388672
1.33053707622163E-06,-79.9169311523438
1.33605797695284E-06,-79.7631607055664
1.34157887768405E-06,-79.6130447387695
1.34709977841526E-06,-79.4696044921875
1.35262067914647E-06,-79.3358840942383
1.35814157987768E-06,-79.2148895263672
1.36366248060889E-06,-79.1096496582031
1.3691833813401E-06,-79.0232009887695
1.37470428207131E-06,-78.9585571289063
1.38022518280252E-06,-78.9187469482422
1.38574608353373E-06,-78.9067916870117
1.39126698426494E-06,-78.9260025024414
1.39678788499615E-06,-78.9806518554688
1.40230878572736E-06,-79.0679168701172
1.40782968645858E-06,-79.183349609375
1.41335058718979E-06,-79.3225250244141
1.418871487921E-06,-79.4810104370117
1.42439238865221E-06,-79.6543807983398
1.42991328938342E-06,-79.8381958007813
1.43543419011463E-06,-80.0280303955078
1.44095509084584E-06,-80.2194519042969
1.44647599157705E-06,-80.4080276489258
1.45199689230826E-06,-80.5893249511719
1.45751779303947E-06,-80.7607498168945
1.46303869377068E-06,-80.9533615112305
1.46855959450189E-06,-81.1730575561523
1.4740804952331E-06,-81.4110717773438
1.47960139596431E-06,-81.6586227416992
1.48512229669552E-06,-81.9069442749023
1.49064319742673E-06,-82.1472702026367
1.49616409815794E-06,-82.3708267211914
1.50168499888915E-06,-82.5688323974609
1.50720589962036E-06,-82.732536315918
1.51272680035157E-06,-82.853141784668
1.51824770108278E-06,-82.9218978881836
1.52376860181399E-06,-82.930419921875
1.5292895025452E-06,-82.8871154785156
1.53481040327641E-06,-82.801383972168
1.54033130400762E-06,-82.6767349243164
1.54585220473883E-06,-82.5167007446289
1.55137310547004E-06,-82.3247985839844
1.55689400620125E-06,-82.1045684814453
1.56241490693246E-06,-81.8595199584961
1.56793580766367E-06,-81.5931854248047
1.57345670839488E-06,-81.3090896606445
1.57897760912609E-06,-81.0107574462891
1.5844985098573E-06,-80.7017135620117
1.59001941058851E-06,-80.3852920532227
1.59554031131972E-06,-80.0475692749023
1.60106121205093E-06,-79.680793762207
1.60658211278214E-06,-79.2886657714844
1.61210301351335E-06,-78.8749008178711
1.61762391424456E-06,-78.4432067871094
1.62314481497577E-06,-77.9973068237305
1.62866571570698E-06,-77.5409164428711
1.63418661643819E-06,-77.0777282714844
1.6397075171694E-06,-76.6114730834961
1.64522841790061E-06,-76.1458587646484
1.65074931863182E-06,-75.6845932006836
1.65627021936303E-06,-75.2313766479492
1.66179112009424E-06,-74.772819519043
1.66731202082545E-06,-74.2982559204102
1.67283292155666E-06,-73.8119354248047
1.67835382228787E-06,-73.318115234375
1.68387472301908E-06,-72.8210372924805
1.68939562375029E-06,-72.3249588012695
1.6949165244815E-06,-71.8341369628906
1.70043742521271E-06,-71.3528060913086
1.70595832594392E-06,-70.8852310180664
1.71147922667513E-06,-70.4356536865234
1.71700012740634E-06,-70.0083389282227
1.72252102813755E-06,-69.6075210571289
1.72804192886876E-06,-69.2251586914063
1.73356282959997E-06,-68.8499221801758
1.73908373033118E-06,-68.4839859008789
1.74460463106239E-06,-68.129524230957
1.7501255317936E-06,-67.7887344360352
1.75564643252481E-06,-67.4637985229492
1.76116733325602E-06,-67.1568984985352
1.76668823398723E-06,-66.8702239990234
1.77220913471844E-06,-66.6059646606445
1.77773003544965E-06,-66.3663024902344
1.78325093618086E-06,-66.1534271240234
1.78877183691207E-06,-65.9695205688477
1.79429273764328E-06,-65.8120651245117
1.79981363837449E-06,-65.6751403808594
1.8053345391057E-06,-65.5593566894531
1.81085543983691E-06,-65.4654083251953
1.81637634056812E-06,-65.3939666748047
1.82189724129933E-06,-65.3457183837891
1.82741814203054E-06,-65.3213424682617
1.83293904276175E-06,-65.321533203125
1.83845994349296E-06,-65.3469543457031
1.84398084422417E-06,-65.398307800293
1.84950174495538E-06,-65.4762573242188
1.85502264568659E-06,-65.5814971923828
1.8605435464178E-06,-65.7173538208008
1.86606444714901E-06,-65.8877792358398
1.87158534788022E-06,-66.0900268554688
1.87710624861143E-06,-66.321159362793
1.88262714934264E-06,-66.5782775878906
1.88814805007385E-06,-66.8584518432617
1.89366895080506E-06,-67.1587600708008
1.89918985153627E-06,-67.4762802124023
1.90471075226748E-06,-67.80810546875
1.91023165299869E-06,-68.1512985229492
1.9157525537299E-06,-68.5029525756836
1.92127345446111E-06,-68.8601379394531
1.92679435519232E-06,-69.2311096191406
1.93231525592353E-06,-69.6392059326172
1.93783615665474E-06,-70.0783309936523
1.94335705738595E-06,-70.5408630371094
1.94887795811716E-06,-71.0191879272461
1.95439885884837E-06,-71.5057067871094
1.95991975957958E-06,-71.9928131103516
1.9654406603108E-06,-72.4728851318359
1.970961561042E-06,-72.9383163452148
1.97648246177322E-06,-73.3815078735352
1.98200336250443E-06,-73.7948379516602
1.98752426323564E-06,-74.1707000732422
1.99304516396685E-06,-74.5086517333984
1.99856606469806E-06,-74.8282852172852
2.00408696542927E-06,-75.1312103271484
2.00960786616048E-06,-75.4172973632813
2.01512876689169E-06,-75.6864013671875
2.0206496676229E-06,-75.9383850097656
2.02617056835411E-06,-76.1731109619141
2.03169146908532E-06,-76.3904495239258
2.03721236981653E-06,-76.5902557373047
2.04273327054774E-06,-76.7723922729492
2.04825417127895E-06,-76.9367218017578
2.05377507201016E-06,-77.0831069946289
2.05929597274137E-06,-77.2055130004883
2.06481687347258E-06,-77.2820816040039
2.07033777420379E-06,-77.318733215332
2.075858674935E-06,-77.3246231079102
2.08137957566621E-06,-77.3088989257813
2.08690047639742E-06,-77.2807083129883
2.09242137712863E-06,-77.2492141723633
2.09794227785984E-06,-77.2235565185547
2.10346317859105E-06,-77.212890625
2.10898407932226E-06,-77.2263717651367
2.11450498005347E-06,-77.2731552124023
2.12002588078468E-06,-77.3623809814453
2.12554678151589E-06,-77.4968948364258
2.1310676822471E-06,-77.6468734741211
2.13658858297831E-06,-77.8093719482422
2.14210948370952E-06,-77.9870834350586
2.14763038444073E-06,-78.1826629638672
2.15315128517194E-06,-78.3987884521484
2.15867218590315E-06,-78.6381378173828
2.16419308663436E-06,-78.9033813476563
2.16971398736557E-06,-79.1971817016602
2.17523488809678E-06,-79.5222244262695
2.18075578882799E-06,-79.8811645507813
2.1862766895592E-06,-80.2766952514648
2.19179759029041E-06,-80.7166748046875
2.19731849102162E-06,-81.238166809082
2.20283939175283E-06,-81.8339767456055
2.20836029248404E-06,-82.4870071411133
2.21388119321525E-06,-83.1801528930664
2.21940209394646E-06,-83.8963165283203
2.22492299467767E-06,-84.6184005737305
2.23044389540888E-06,-85.3292999267578
2.23596479614009E-06,-86.0119247436523
2.2414856968713E-06,-86.649169921875
2.24700659760251E-06,-87.2239379882813
2.25252749833372E-06,-87.719123840332
2.25804839906493E-06,-88.1208190917969
2.26356929979614E-06,-88.455078125
2.26909020052735E-06,-88.7360000610352
2.27461110125856E-06,-88.9690399169922
2.28013200198977E-06,-89.1596221923828
2.28565290272098E-06,-89.3132019042969
2.29117380345219E-06,-89.4352188110352
2.2966947041834E-06,-89.531120300293
2.30221560491461E-06,-89.6063461303711
2.30773650564582E-06,-89.6663436889648
2.31325740637703E-06,-89.7165451049805
2.31877830710824E-06,-89.7624053955078
2.32429920783945E-06,-89.8092269897461
2.32982010857066E-06,-89.8573150634766
2.33534100930187E-06,-89.9018325805664
2.34086191003308E-06,-89.9379196166992
2.34638281076429E-06,-89.9607086181641
2.3519037114955E-06,-89.96533203125
2.35742461222671E-06,-89.9469299316406
2.36294551295792E-06,-89.9006271362305
2.36846641368913E-06,-89.8215637207031
2.37398731442034E-06,-89.7048721313477
2.37950821515155E-06,-89.5456848144531
2.38502911588276E-06,-89.3391418457031
2.39055001661397E-06,-89.0794219970703
2.39607091734518E-06,-88.7376327514648
2.40159181807639E-06,-88.3139266967773
2.4071127188076E-06,-87.8244171142578
2.41263361953881E-06,-87.2852325439453
2.41815452027002E-06,-86.7124862670898
2.42367542100123E-06,-86.122314453125
2.42919632173244E-06,-85.5308303833008
2.43471722246365E-06,-84.9541549682617
2.44023812319486E-06,-84.4084091186523
2.44575902392607E-06,-83.9097137451172
2.45127992465728E-06,-83.4741973876953
2.45680082538849E-06,-83.1171493530273
2.4623217261197E-06,-82.7947845458984
2.46784262685091E-06,-82.4798889160156
2.47336352758212E-06,-82.1797027587891
2.47888442831333E-06,-81.9014587402344
2.48440532904454E-06,-81.6523818969727
2.48992622977575E-06,-81.4397048950195
2.49544713050696E-06,-81.2706604003906
2.50096803123817E-06,-81.152473449707
2.50648893196938E-06,-81.0923919677734
2.51200983270059E-06,-81.0976257324219
2.5175307334318E-06,-81.1754150390625
2.52305163416301E-06,-81.3331451416016
2.52857253489422E-06,-81.6208114624023
2.53409343562543E-06,-82.0541305541992
2.53961433635665E-06,-82.603401184082
2.54513523708785E-06,-83.2389373779297
2.55065613781907E-06,-83.931037902832
2.55617703855028E-06,-84.6500244140625
2.56169793928149E-06,-85.3661804199219
2.5672188400127E-06,-86.0498352050781
2.57273974074391E-06,-86.6712799072266
2.57826064147512E-06,-87.2008209228516
2.58378154220633E-06,-87.6087799072266
2.58930244293754E-06,-87.8654403686523
2.59482334366875E-06,-87.9794311523438
2.60034424439996E-06,-87.9905319213867
2.60586514513117E-06,-87.9121704101563
2.61138604586238E-06,-87.7577743530273
2.61690694659359E-06,-87.540771484375
2.6224278473248E-06,-87.2745819091797
2.62794874805601E-06,-86.9726333618164
2.63346964878722E-06,-86.6483459472656
2.63899054951843E-06,-86.3151473999023
2.64451145024964E-06,-85.986457824707
2.65003235098085E-06,-85.6757049560547
2.65555325171206E-06,-85.3963165283203
2.66107415244327E-06,-85.126091003418
2.66659505317448E-06,-84.8241729736328
2.67211595390569E-06,-84.4979019165039
2.6776368546369E-06,-84.1549987792969
2.68315775536811E-06,-83.8031921386719
2.68867865609932E-06,-83.4501953125
2.69419955683053E-06,-83.1037445068359
2.69972045756174E-06,-82.7715606689453
2.70524135829295E-06,-82.4613571166992
2.71076225902416E-06,-82.1808624267578
2.71628315975537E-06,-81.9378051757813
2.72180406048658E-06,-81.7399063110352
2.72732496121779E-06,-81.593879699707
