Trace
Swept SA
A.19.55,N9020B
508 AB2 B25 B40 B85 DP2 DP4 EP2 FS1 FS2 MPB RTL ,01
Segment,0
Number of Points,81920
Sweep Time,0.0004096
Start Frequency,2400000000
Stop Frequency,2400000000
Average Count,0
Average Type,LogPower(Video)
RBW,3000000
RBW Filter,Gaussian
RBW Filter BW,3dB
VBW,3000000
Sweep Type,Swept
X Axis Scale,Lin
PreAmp State,Off
PreAmp Band,Low
Trigger Source,Ext1
Trigger Level,1.2
Trigger Slope,Positive
Trigger Delay,1E-06
Phase Noise Optimization,Fast
Swept If Gain,Low
FFT If Gain,Autorange
RF Coupling,AC
FFT Width,411900
Ext Ref,10000000
Input,RF
RF Calibrator,Off
Attenuation,6
Ref Level Offset,0
External Gain,0
Trace Type,Clearwrite
Detector,Normal
Trace Math,Off
Trace Math Oper1,Trace5
Trace Math Oper2,Trace6
Trace Math Offset,0
Normalize,Off
Trace Name,Trace1
X Axis Units,s
Y Axis Units,dBm
DATA
0,-64.9118804931641
5.00006103590132E-09,-65.2846221923828
1.00001220718026E-08,-65.6130447387695
1.50001831077039E-08,-65.8995132446289
2.00002441436053E-08,-66.1463851928711
2.50003051795066E-08,-66.3560333251953
3.00003662154079E-08,-66.5308227539063
3.50004272513092E-08,-66.6731185913086
4.00004882872105E-08,-66.785285949707
4.50005493231118E-08,-66.8696899414063
5.00006103590132E-08,-66.9286880493164
5.50006713949145E-08,-66.9646606445313
6.00007324308158E-08,-66.9770889282227
6.50007934667171E-08,-66.9331130981445
7.00008545026184E-08,-66.8301544189453
7.50009155385197E-08,-66.6776580810547
8.00009765744211E-08,-66.4850692749023
8.50010376103224E-08,-66.2618255615234
9.00010986462237E-08,-66.0173721313477
9.5001159682125E-08,-65.7611465454102
1.00001220718026E-07,-65.5026016235352
1.05001281753928E-07,-65.2511672973633
1.10001342789829E-07,-65.0162887573242
1.1500140382573E-07,-64.8074111938477
1.20001464861632E-07,-64.6339721679688
1.25001525897533E-07,-64.5054168701172
1.30001586933434E-07,-64.4138412475586
1.35001647969336E-07,-64.3433380126953
1.40001709005237E-07,-64.291389465332
1.45001770041138E-07,-64.2554626464844
1.50001831077039E-07,-64.2330169677734
1.55001892112941E-07,-64.2215270996094
1.60001953148842E-07,-64.2184600830078
1.65002014184743E-07,-64.2212829589844
1.70002075220645E-07,-64.2274627685547
1.75002136256546E-07,-64.2344665527344
1.80002197292447E-07,-64.2397689819336
1.85002258328349E-07,-64.240837097168
1.9000231936425E-07,-64.2351303100586
1.95002380400151E-07,-64.2165603637695
2.00002441436053E-07,-64.1752243041992
2.05002502471954E-07,-64.1166687011719
2.10002563507855E-07,-64.0474853515625
2.15002624543757E-07,-63.9742774963379
2.20002685579658E-07,-63.9036445617676
2.25002746615559E-07,-63.8421859741211
2.30002807651461E-07,-63.796501159668
2.35002868687362E-07,-63.7731857299805
2.40002929723263E-07,-63.7788467407227
2.45002990759165E-07,-63.8200759887695
2.50003051795066E-07,-63.9034805297852
2.55003112830967E-07,-64.0356521606445
2.60003173866868E-07,-64.2239151000977
2.6500323490277E-07,-64.4793472290039
2.70003295938671E-07,-64.7961196899414
2.75003356974572E-07,-65.1642990112305
2.80003418010474E-07,-65.5739517211914
2.85003479046375E-07,-66.0151519775391
2.90003540082276E-07,-66.4779586791992
2.95003601118178E-07,-66.9524383544922
3.00003662154079E-07,-67.4286651611328
3.0500372318998E-07,-67.8967056274414
3.10003784225882E-07,-68.3466186523438
3.15003845261783E-07,-68.7684783935547
3.20003906297684E-07,-69.15234375
3.25003967333586E-07,-69.4882888793945
3.30004028369487E-07,-69.789192199707
3.35004089405388E-07,-70.0748443603516
3.4000415044129E-07,-70.345703125
3.45004211477191E-07,-70.6022033691406
3.50004272513092E-07,-70.8447952270508
3.55004333548993E-07,-71.0739364624023
3.60004394584895E-07,-71.2900543212891
3.65004455620796E-07,-71.4936065673828
3.70004516656697E-07,-71.6850433349609
3.75004577692599E-07,-71.8647994995117
3.800046387285E-07,-72.0333251953125
3.85004699764401E-07,-72.1910781860352
3.90004760800303E-07,-72.338493347168
3.95004821836204E-07,-72.4798049926758
4.00004882872105E-07,-72.62548828125
4.05004943908007E-07,-72.7720336914063
4.10005004943908E-07,-72.9149169921875
4.15005065979809E-07,-73.0495986938477
4.20005127015711E-07,-73.1715545654297
4.25005188051612E-07,-73.2762451171875
4.30005249087513E-07,-73.359130859375
4.35005310123415E-07,-73.4156951904297
4.40005371159316E-07,-73.4413833618164
4.45005432195217E-07,-73.4316787719727
4.50005493231119E-07,-73.3820343017578
4.5500555426702E-07,-73.2879257202148
4.60005615302921E-07,-73.1420211791992
4.65005676338822E-07,-72.9096145629883
4.70005737374724E-07,-72.594352722168
4.75005798410625E-07,-72.2126159667969
4.80005859446526E-07,-71.7807998657227
4.85005920482428E-07,-71.3152923583984
4.90005981518329E-07,-70.8324813842773
4.9500604255423E-07,-70.348747253418
5.00006103590132E-07,-69.8804779052734
5.05006164626033E-07,-69.4440689086914
5.10006225661934E-07,-69.0559005737305
5.15006286697836E-07,-68.7323608398438
5.20006347733737E-07,-68.4898452758789
5.25006408769638E-07,-68.3447265625
5.3000646980554E-07,-68.2977523803711
5.35006530841441E-07,-68.3310928344727
5.40006591877342E-07,-68.4333343505859
5.45006652913243E-07,-68.5930404663086
5.50006713949145E-07,-68.7987823486328
5.55006774985046E-07,-69.0391387939453
5.60006836020948E-07,-69.3026809692383
5.65006897056849E-07,-69.5779724121094
5.7000695809275E-07,-69.8535995483398
5.75007019128651E-07,-70.1181182861328
5.80007080164553E-07,-70.3601150512695
5.85007141200454E-07,-70.5681457519531
5.90007202236355E-07,-70.7308044433594
5.95007263272257E-07,-70.8425598144531
6.00007324308158E-07,-70.9194488525391
6.05007385344059E-07,-70.9689483642578
6.10007446379961E-07,-70.9973678588867
6.15007507415862E-07,-71.0110397338867
6.20007568451763E-07,-71.0162887573242
6.25007629487665E-07,-71.0194396972656
6.30007690523566E-07,-71.0268020629883
6.35007751559467E-07,-71.0447158813477
6.40007812595369E-07,-71.0794906616211
6.4500787363127E-07,-71.1374664306641
6.50007934667171E-07,-71.2249450683594
6.55007995703072E-07,-71.3482666015625
6.60008056738974E-07,-71.5133819580078
6.65008117774875E-07,-71.7184829711914
6.70008178810776E-07,-71.9578247070313
6.75008239846678E-07,-72.2262802124023
6.80008300882579E-07,-72.5187072753906
6.8500836191848E-07,-72.8299789428711
6.90008422954382E-07,-73.1549606323242
6.95008483990283E-07,-73.4885177612305
7.00008545026184E-07,-73.8255233764648
7.05008606062086E-07,-74.1608276367188
7.10008667097987E-07,-74.4893112182617
7.15008728133888E-07,-74.8058395385742
7.2000878916979E-07,-75.1052703857422
7.25008850205691E-07,-75.3824768066406
7.30008911241592E-07,-75.6483306884766
7.35008972277494E-07,-75.9159164428711
7.40009033313395E-07,-76.1834030151367
7.45009094349296E-07,-76.448974609375
7.50009155385198E-07,-76.7108154296875
7.55009216421099E-07,-76.9671020507813
7.60009277457E-07,-77.2160110473633
7.65009338492901E-07,-77.4557266235352
7.70009399528803E-07,-77.6844253540039
7.75009460564704E-07,-77.9002838134766
7.80009521600605E-07,-78.1014938354492
7.85009582636507E-07,-78.2862243652344
7.90009643672408E-07,-78.4526596069336
7.95009704708309E-07,-78.5943756103516
8.00009765744211E-07,-78.6986541748047
8.05009826780112E-07,-78.7710876464844
8.10009887816013E-07,-78.818603515625
8.15009948851915E-07,-78.8481063842773
8.20010009887816E-07,-78.8665084838867
8.25010070923717E-07,-78.880729675293
8.30010131959619E-07,-78.8976821899414
8.3501019299552E-07,-78.9242782592773
8.40010254031421E-07,-78.9674377441406
8.45010315067323E-07,-79.034065246582
8.50010376103224E-07,-79.1310729980469
8.55010437139125E-07,-79.2653884887695
8.60010498175026E-07,-79.4446334838867
8.65010559210928E-07,-79.6800384521484
8.70010620246829E-07,-79.9654846191406
8.7501068128273E-07,-80.2907028198242
8.80010742318632E-07,-80.6454315185547
8.85010803354533E-07,-81.0193939208984
8.90010864390434E-07,-81.4023208618164
8.95010925426336E-07,-81.7839431762695
9.00010986462237E-07,-82.1539916992188
9.05011047498138E-07,-82.502197265625
9.1001110853404E-07,-82.8182907104492
9.15011169569941E-07,-83.0920028686523
9.20011230605842E-07,-83.3130569458008
9.25011291641744E-07,-83.47119140625
9.30011352677645E-07,-83.5664215087891
9.35011413713546E-07,-83.6102294921875
9.40011474749448E-07,-83.6095428466797
9.45011535785349E-07,-83.5712966918945
9.5001159682125E-07,-83.5024261474609
9.55011657857151E-07,-83.4098587036133
9.60011718893053E-07,-83.3005142211914
9.65011779928954E-07,-83.1813354492188
9.70011840964855E-07,-83.0592575073242
9.75011902000757E-07,-82.9411926269531
9.80011963036658E-07,-82.8340835571289
9.85012024072559E-07,-82.7448654174805
9.90012085108461E-07,-82.6804580688477
9.95012146144362E-07,-82.6430816650391
1.00001220718026E-06,-82.6199340820313
1.00501226821616E-06,-82.6073608398438
1.01001232925207E-06,-82.6027297973633
1.01501239028797E-06,-82.6034088134766
1.02001245132387E-06,-82.6067504882813
1.02501251235977E-06,-82.6101226806641
1.03001257339567E-06,-82.6108856201172
1.03501263443157E-06,-82.6063995361328
1.04001269546747E-06,-82.5940322875977
1.04501275650338E-06,-82.5711441040039
1.05001281753928E-06,-82.5350952148438
1.05501287857518E-06,-82.4832534790039
1.06001293961108E-06,-82.4134902954102
1.06501300064698E-06,-82.3309860229492
1.07001306168288E-06,-82.2381896972656
1.07501312271878E-06,-82.1356887817383
1.08001318375468E-06,-82.024055480957
1.08501324479059E-06,-81.9038925170898
1.09001330582649E-06,-81.7757797241211
1.09501336686239E-06,-81.6403045654297
1.10001342789829E-06,-81.4980545043945
1.10501348893419E-06,-81.349609375
1.11001354997009E-06,-81.195556640625
1.11501361100599E-06,-81.0364837646484
1.1200136720419E-06,-80.8729782104492
1.1250137330778E-06,-80.7056274414063
1.1300137941137E-06,-80.5257034301758
1.1350138551496E-06,-80.3266525268555
1.1400139161855E-06,-80.1123352050781
1.1450139772214E-06,-79.8865966796875
1.1500140382573E-06,-79.6532821655273
1.1550140992932E-06,-79.4162292480469
1.16001416032911E-06,-79.1793060302734
1.16501422136501E-06,-78.9463424682617
1.17001428240091E-06,-78.7211990356445
1.17501434343681E-06,-78.5077209472656
1.18001440447271E-06,-78.3097534179688
1.18501446550861E-06,-78.1311492919922
1.19001452654451E-06,-77.9757461547852
1.19501458758041E-06,-77.8465881347656
1.20001464861632E-06,-77.7415237426758
1.20501470965222E-06,-77.657096862793
1.21001477068812E-06,-77.5899200439453
1.21501483172402E-06,-77.53662109375
1.22001489275992E-06,-77.4937973022461
1.22501495379582E-06,-77.4580764770508
1.23001501483172E-06,-77.4260711669922
1.23501507586763E-06,-77.3943939208984
1.24001513690353E-06,-77.3596649169922
1.24501519793943E-06,-77.318489074707
1.25001525897533E-06,-77.2674942016602
1.25501532001123E-06,-77.2032852172852
1.26001538104713E-06,-77.1236572265625
1.26501544208303E-06,-77.0410385131836
1.27001550311893E-06,-76.9586639404297
1.27501556415484E-06,-76.8752365112305
1.28001562519074E-06,-76.789436340332
1.28501568622664E-06,-76.6999816894531
1.29001574726254E-06,-76.6055603027344
1.29501580829844E-06,-76.5048675537109
1.30001586933434E-06,-76.396614074707
1.30501593037024E-06,-76.2794952392578
1.31001599140614E-06,-76.1521987915039
1.31501605244205E-06,-76.0134429931641
1.32001611347795E-06,-75.8619079589844
1.32501617451385E-06,-75.6962966918945
1.33001623554975E-06,-75.5080795288086
1.33501629658565E-06,-75.2929306030273
1.34001635762155E-06,-75.0558929443359
1.34501641865745E-06,-74.8019943237305
1.35001647969336E-06,-74.536262512207
1.35501654072926E-06,-74.2637405395508
1.36001660176516E-06,-73.9894561767578
1.36501666280106E-06,-73.7184448242188
1.37001672383696E-06,-73.4557342529297
1.37501678487286E-06,-73.2063598632813
1.38001684590876E-06,-72.9753570556641
1.38501690694466E-06,-72.7677612304688
1.39001696798057E-06,-72.5886001586914
1.39501702901647E-06,-72.4352951049805
1.40001709005237E-06,-72.2869720458984
1.40501715108827E-06,-72.1443405151367
1.41001721212417E-06,-72.0099411010742
1.41501727316007E-06,-71.8863296508789
1.42001733419597E-06,-71.7760696411133
1.42501739523188E-06,-71.6817092895508
1.43001745626778E-06,-71.6057968139648
1.43501751730368E-06,-71.5509033203125
1.44001757833958E-06,-71.5195617675781
1.44501763937548E-06,-71.5143432617188
1.45001770041138E-06,-71.5377960205078
1.45501776144728E-06,-71.5924758911133
1.46001782248318E-06,-71.6824493408203
1.46501788351909E-06,-71.8266296386719
1.47001794455499E-06,-72.0229415893555
1.47501800559089E-06,-72.2623901367188
1.48001806662679E-06,-72.5359649658203
1.48501812766269E-06,-72.8346786499023
1.49001818869859E-06,-73.1495208740234
1.49501824973449E-06,-73.4714813232422
1.5000183107704E-06,-73.7915725708008
1.5050183718063E-06,-74.1007843017578
1.5100184328422E-06,-74.3901214599609
1.5150184938781E-06,-74.6505737304688
1.520018554914E-06,-74.8731384277344
1.5250186159499E-06,-75.0488204956055
1.5300186769858E-06,-75.1838531494141
1.5350187380217E-06,-75.2925186157227
1.54001879905761E-06,-75.3778610229492
1.54501886009351E-06,-75.4429244995117
1.55001892112941E-06,-75.4907531738281
1.55501898216531E-06,-75.5243911743164
1.56001904320121E-06,-75.5468978881836
1.56501910423711E-06,-75.5613021850586
1.57001916527301E-06,-75.5706634521484
1.57501922630891E-06,-75.5780258178711
1.58001928734482E-06,-75.58642578125
1.58501934838072E-06,-75.5989227294922
1.59001940941662E-06,-75.6185607910156
1.59501947045252E-06,-75.6526184082031
1.60001953148842E-06,-75.7128753662109
1.60501959252432E-06,-75.7927169799805
1.61001965356022E-06,-75.8842391967773
1.61501971459613E-06,-75.9795608520508
1.62001977563203E-06,-76.0707855224609
1.62501983666793E-06,-76.150032043457
1.63001989770383E-06,-76.2094039916992
1.63501995873973E-06,-76.2410125732422
1.64002001977563E-06,-76.2369689941406
1.64502008081153E-06,-76.1893844604492
1.65002014184743E-06,-76.0903778076172
1.65502020288334E-06,-75.9320449829102
1.66002026391924E-06,-75.7079315185547
1.66502032495514E-06,-75.4318161010742
1.67002038599104E-06,-75.1110076904297
1.67502044702694E-06,-74.7478485107422
1.68002050806284E-06,-74.3446884155273
1.68502056909874E-06,-73.9038619995117
1.69002063013465E-06,-73.4277038574219
1.69502069117055E-06,-72.918571472168
1.70002075220645E-06,-72.3788070678711
1.70502081324235E-06,-71.8107376098633
1.71002087427825E-06,-71.2167205810547
1.71502093531415E-06,-70.5990829467773
1.72002099635005E-06,-69.9601821899414
1.72502105738595E-06,-69.3023529052734
1.73002111842186E-06,-68.588752746582
1.73502117945776E-06,-67.7918701171875
1.74002124049366E-06,-66.9280471801758
1.74502130152956E-06,-66.0136260986328
1.75002136256546E-06,-65.0649490356445
1.75502142360136E-06,-64.0983505249023
1.76002148463726E-06,-63.1301803588867
1.76502154567316E-06,-62.1767768859863
1.77002160670907E-06,-61.2544784545898
1.77502166774497E-06,-60.3796234130859
1.78002172878087E-06,-59.5685577392578
1.78502178981677E-06,-58.8376235961914
1.79002185085267E-06,-58.2031555175781
1.79502191188857E-06,-57.6716766357422
1.80002197292447E-06,-57.2165184020996
1.80502203396038E-06,-56.8280792236328
1.81002209499628E-06,-56.4987640380859
1.81502215603218E-06,-56.2209854125977
1.82002221706808E-06,-55.9871520996094
1.82502227810398E-06,-55.7896690368652
1.83002233913988E-06,-55.6209526062012
1.83502240017578E-06,-55.4734039306641
1.84002246121168E-06,-55.3394355773926
1.84502252224759E-06,-55.2114601135254
1.85002258328349E-06,-55.0818824768066
1.85502264431939E-06,-54.9431076049805
1.86002270535529E-06,-54.7877883911133
1.86502276639119E-06,-54.6156768798828
1.87002282742709E-06,-54.4336395263672
1.87502288846299E-06,-54.2486915588379
1.8800229494989E-06,-54.0678443908691
1.8850230105348E-06,-53.8981094360352
1.8900230715707E-06,-53.7465057373047
1.8950231326066E-06,-53.6200408935547
1.9000231936425E-06,-53.5257301330566
1.9050232546784E-06,-53.470588684082
1.9100233157143E-06,-53.4616241455078
1.9150233767502E-06,-53.505859375
1.92002343778611E-06,-53.6102981567383
1.92502349882201E-06,-53.7819595336914
1.93002355985791E-06,-54.0433540344238
1.93502362089381E-06,-54.4018478393555
1.94002368192971E-06,-54.8417587280273
1.94502374296561E-06,-55.3473930358887
1.95002380400151E-06,-55.9030685424805
1.95502386503741E-06,-56.4930877685547
1.96002392607332E-06,-57.1017684936523
1.96502398710922E-06,-57.7134170532227
1.97002404814512E-06,-58.3123512268066
1.97502410918102E-06,-58.8828735351563
1.98002417021692E-06,-59.4093017578125
1.98502423125282E-06,-59.8759422302246
1.99002429228872E-06,-60.2671089172363
1.99502435332463E-06,-60.5799446105957
2.00002441436053E-06,-60.8494148254395
2.00502447539643E-06,-61.08203125
2.01002453643233E-06,-61.2814674377441
2.01502459746823E-06,-61.4513893127441
2.02002465850413E-06,-61.595458984375
2.02502471954003E-06,-61.7173461914063
2.03002478057593E-06,-61.8207168579102
2.03502484161184E-06,-61.909236907959
2.04002490264774E-06,-61.9865760803223
2.04502496368364E-06,-62.0564002990723
2.05002502471954E-06,-62.122371673584
2.05502508575544E-06,-62.1881637573242
2.06002514679134E-06,-62.2556838989258
2.06502520782724E-06,-62.305736541748
2.07002526886315E-06,-62.3347511291504
2.07502532989905E-06,-62.3461647033691
2.08002539093495E-06,-62.3433990478516
2.08502545197085E-06,-62.3298835754395
2.09002551300675E-06,-62.3090476989746
2.09502557404265E-06,-62.2843208312988
2.10002563507855E-06,-62.2591323852539
2.10502569611445E-06,-62.2369041442871
2.11002575715036E-06,-62.2210731506348
2.11502581818626E-06,-62.2150650024414
2.12002587922216E-06,-62.2223052978516
2.12502594025806E-06,-62.246223449707
2.13002600129396E-06,-62.2859573364258
2.13502606232986E-06,-62.337085723877
2.14002612336576E-06,-62.3977165222168
2.14502618440166E-06,-62.4659538269043
2.15002624543757E-06,-62.5399017333984
2.15502630647347E-06,-62.6176681518555
2.16002636750937E-06,-62.6973571777344
2.16502642854527E-06,-62.7770729064941
2.17002648958117E-06,-62.854923248291
2.17502655061707E-06,-62.9290084838867
2.18002661165297E-06,-62.9974403381348
2.18502667268888E-06,-63.0583229064941
2.19002673372478E-06,-63.1097564697266
2.19502679476068E-06,-63.1476898193359
2.20002685579658E-06,-63.1661224365234
2.20502691683248E-06,-63.1687927246094
2.21002697786838E-06,-63.160099029541
2.21502703890428E-06,-63.1444320678711
2.22002709994018E-06,-63.1261940002441
2.22502716097609E-06,-63.1097755432129
2.23002722201199E-06,-63.0995750427246
2.23502728304789E-06,-63.0999870300293
2.24002734408379E-06,-63.1154098510742
2.24502740511969E-06,-63.1502380371094
2.25002746615559E-06,-63.2088661193848
2.25502752719149E-06,-63.2956924438477
2.2600275882274E-06,-63.4154930114746
2.2650276492633E-06,-63.5744743347168
2.2700277102992E-06,-63.7687454223633
2.2750277713351E-06,-63.9920997619629
2.280027832371E-06,-64.2383346557617
2.2850278934069E-06,-64.5012435913086
2.2900279544428E-06,-64.7746276855469
2.2950280154787E-06,-65.0522766113281
2.30002807651461E-06,-65.3279876708984
2.30502813755051E-06,-65.5955581665039
2.31002819858641E-06,-65.8487854003906
2.31502825962231E-06,-66.0814590454102
2.32002832065821E-06,-66.2873840332031
2.32502838169411E-06,-66.4603500366211
2.33002844273001E-06,-66.6055374145508
2.33502850376592E-06,-66.7333831787109
2.34002856480182E-06,-66.8455581665039
2.34502862583772E-06,-66.9437255859375
2.35002868687362E-06,-67.0295639038086
2.35502874790952E-06,-67.1047439575195
2.36002880894542E-06,-67.1709365844727
2.36502886998132E-06,-67.2298126220703
2.37002893101722E-06,-67.2830429077148
2.37502899205313E-06,-67.3322982788086
2.38002905308903E-06,-67.3792572021484
2.38502911412493E-06,-67.4255828857422
2.39002917516083E-06,-67.4729537963867
2.39502923619673E-06,-67.5179061889648
2.40002929723263E-06,-67.5463409423828
2.40502935826853E-06,-67.5605697631836
2.41002941930443E-06,-67.5642013549805
2.41502948034034E-06,-67.5608596801758
2.42002954137624E-06,-67.5541687011719
2.42502960241214E-06,-67.547737121582
2.43002966344804E-06,-67.5451889038086
2.43502972448394E-06,-67.5501480102539
2.44002978551984E-06,-67.5662231445313
2.44502984655574E-06,-67.5970458984375
2.45002990759165E-06,-67.6462249755859
2.45502996862755E-06,-67.7173843383789
2.46003002966345E-06,-67.8119583129883
2.46503009069935E-06,-67.905632019043
2.47003015173525E-06,-67.9948043823242
