Trace
Swept SA
A.19.55,N9020B
508 AB2 B25 B40 B85 DP2 DP4 EP2 FS1 FS2 MPB RTL ,01
Segment,0
Number of Points,81920
Sweep Time,0.0004096
Start Frequency,2400000000
Stop Frequency,2400000000
Average Count,0
Average Type,LogPower(Video)
RBW,3000000
RBW Filter,Gaussian
RBW Filter BW,3dB
VBW,3000000
Sweep Type,Swept
X Axis Scale,Lin
PreAmp State,Off
PreAmp Band,Low
Trigger Source,Ext1
Trigger Level,1.2
Trigger Slope,Positive
Trigger Delay,1E-06
Phase Noise Optimization,Fast
Swept If Gain,Low
FFT If Gain,Autorange
RF Coupling,AC
FFT Width,411900
Ext Ref,10000000
Input,RF
RF Calibrator,Off
Attenuation,6
Ref Level Offset,0
External Gain,0
Trace Type,Clearwrite
Detector,Normal
Trace Math,Off
Trace Math Oper1,Trace5
Trace Math Oper2,Trace6
Trace Math Offset,0
Normalize,Off
Trace Name,Trace1
X Axis Units,s
Y Axis Units,dBm
DATA
0,-82.7281875610352
5.00006103590132E-09,-83.6974105834961
1.00001220718026E-08,-84.8186798095703
1.50001831077039E-08,-86.0480651855469
2.00002441436053E-08,-87.3416748046875
2.50003051795066E-08,-88.6555862426758
3.00003662154079E-08,-89.9458923339844
3.50004272513092E-08,-91.1686935424805
4.00004882872105E-08,-92.2800674438477
4.50005493231118E-08,-93.2361068725586
5.00006103590132E-08,-93.9929046630859
5.50006713949145E-08,-94.5065536499023
6.00007324308158E-08,-94.736442565918
6.50007934667171E-08,-94.7042922973633
7.00008545026184E-08,-94.450080871582
7.50009155385197E-08,-94.0062484741211
8.00009765744211E-08,-93.4052124023438
8.50010376103224E-08,-92.6793899536133
9.00010986462237E-08,-91.8612060546875
9.5001159682125E-08,-90.9830856323242
1.00001220718026E-07,-90.0774536132813
1.05001281753928E-07,-89.1767196655273
1.10001342789829E-07,-88.3133163452148
1.1500140382573E-07,-87.5196685791016
1.20001464861632E-07,-86.8281936645508
1.25001525897533E-07,-86.2713165283203
1.30001586933434E-07,-85.8028793334961
1.35001647969336E-07,-85.3554916381836
1.40001709005237E-07,-84.9296951293945
1.45001770041138E-07,-84.5260238647461
1.50001831077039E-07,-84.1450347900391
1.55001892112941E-07,-83.7872695922852
1.60001953148842E-07,-83.4532623291016
1.65002014184743E-07,-83.1435699462891
1.70002075220645E-07,-82.8587341308594
1.75002136256546E-07,-82.5992889404297
1.80002197292447E-07,-82.3657913208008
1.85002258328349E-07,-82.1587753295898
1.9000231936425E-07,-81.9787902832031
1.95002380400151E-07,-81.8314361572266
2.00002441436053E-07,-81.7306365966797
2.05002502471954E-07,-81.6718063354492
2.10002563507855E-07,-81.6489486694336
2.15002624543757E-07,-81.6560821533203
2.20002685579658E-07,-81.6872253417969
2.25002746615559E-07,-81.7363891601563
2.30002807651461E-07,-81.7975921630859
2.35002868687362E-07,-81.8648452758789
2.40002929723263E-07,-81.9321746826172
2.45002990759165E-07,-81.9935836791992
2.50003051795066E-07,-82.0430908203125
2.55003112830967E-07,-82.0747222900391
2.60003173866868E-07,-82.0842208862305
2.6500323490277E-07,-82.0897598266602
2.70003295938671E-07,-82.0969924926758
2.75003356974572E-07,-82.1049728393555
2.80003418010474E-07,-82.1127471923828
2.85003479046375E-07,-82.1193695068359
2.90003540082276E-07,-82.1238861083984
2.95003601118178E-07,-82.1253433227539
3.00003662154079E-07,-82.1227951049805
3.0500372318998E-07,-82.1152954101563
3.10003784225882E-07,-82.1018981933594
3.15003845261783E-07,-82.0816421508789
3.20003906297684E-07,-82.053581237793
3.25003967333586E-07,-82.0167694091797
3.30004028369487E-07,-81.9634780883789
3.35004089405388E-07,-81.8895492553711
3.4000415044129E-07,-81.7993850708008
3.45004211477191E-07,-81.6973876953125
3.50004272513092E-07,-81.5879516601563
3.55004333548993E-07,-81.4754791259766
3.60004394584895E-07,-81.3643646240234
3.65004455620796E-07,-81.2590179443359
3.70004516656697E-07,-81.1638259887695
3.75004577692599E-07,-81.0831985473633
3.800046387285E-07,-81.0215377807617
3.85004699764401E-07,-80.9832305908203
3.90004760800303E-07,-80.9726791381836
3.95004821836204E-07,-80.9856033325195
4.00004882872105E-07,-80.9981384277344
4.05004943908007E-07,-81.0125274658203
4.10005004943908E-07,-81.0331573486328
4.15005065979809E-07,-81.0644378662109
4.20005127015711E-07,-81.1107711791992
4.25005188051612E-07,-81.1765518188477
4.30005249087513E-07,-81.2661895751953
4.35005310123415E-07,-81.3840789794922
4.40005371159316E-07,-81.5346221923828
4.45005432195217E-07,-81.7222290039063
4.50005493231119E-07,-81.9512939453125
4.5500555426702E-07,-82.2262191772461
4.60005615302921E-07,-82.556266784668
4.65005676338822E-07,-83.0004501342773
4.70005737374724E-07,-83.5555419921875
4.75005798410625E-07,-84.1967163085938
4.80005859446526E-07,-84.8991241455078
4.85005920482428E-07,-85.6379241943359
4.90005981518329E-07,-86.3882751464844
4.9500604255423E-07,-87.1253433227539
5.00006103590132E-07,-87.8242874145508
5.05006164626033E-07,-88.4602584838867
5.10006225661934E-07,-89.0084228515625
5.15006286697836E-07,-89.4439315795898
5.20006347733737E-07,-89.7419586181641
5.25006408769638E-07,-89.8776473999023
5.3000646980554E-07,-89.845329284668
5.35006530841441E-07,-89.6689071655273
5.40006591877342E-07,-89.3679275512695
5.45006652913243E-07,-88.9619522094727
5.50006713949145E-07,-88.4705123901367
5.55006774985046E-07,-87.9131698608398
5.60006836020948E-07,-87.3094635009766
5.65006897056849E-07,-86.6789474487305
5.7000695809275E-07,-86.0411605834961
5.75007019128651E-07,-85.4156646728516
5.80007080164553E-07,-84.8219985961914
5.85007141200454E-07,-84.2797088623047
5.90007202236355E-07,-83.808349609375
5.95007263272257E-07,-83.4063186645508
6.00007324308158E-07,-83.0158081054688
6.05007385344059E-07,-82.6328048706055
6.10007446379961E-07,-82.2582550048828
6.15007507415862E-07,-81.8930892944336
6.20007568451763E-07,-81.5382385253906
6.25007629487665E-07,-81.1946487426758
6.30007690523566E-07,-80.8632431030273
6.35007751559467E-07,-80.5449752807617
6.40007812595369E-07,-80.2407608032227
6.4500787363127E-07,-79.951545715332
6.50007934667171E-07,-79.6782684326172
6.55007995703072E-07,-79.4218597412109
6.60008056738974E-07,-79.1831436157227
6.65008117774875E-07,-78.9611129760742
6.70008178810776E-07,-78.7549133300781
6.75008239846678E-07,-78.5640411376953
6.80008300882579E-07,-78.3880004882813
6.8500836191848E-07,-78.2262802124023
6.90008422954382E-07,-78.0783920288086
6.95008483990283E-07,-77.9438247680664
7.00008545026184E-07,-77.8220748901367
7.05008606062086E-07,-77.7126541137695
7.10008667097987E-07,-77.6150436401367
7.15008728133888E-07,-77.5287628173828
7.2000878916979E-07,-77.4532928466797
7.25008850205691E-07,-77.3881378173828
7.30008911241592E-07,-77.331916809082
7.35008972277494E-07,-77.2842712402344
7.40009033313395E-07,-77.2461929321289
7.45009094349296E-07,-77.2187042236328
7.50009155385198E-07,-77.2028045654297
7.55009216421099E-07,-77.1995086669922
7.60009277457E-07,-77.209831237793
7.65009338492901E-07,-77.2347717285156
7.70009399528803E-07,-77.2753372192383
7.75009460564704E-07,-77.3325500488281
7.80009521600605E-07,-77.4074096679688
7.85009582636507E-07,-77.5009307861328
7.90009643672408E-07,-77.6141128540039
7.95009704708309E-07,-77.7488021850586
8.00009765744211E-07,-77.9073104858398
8.05009826780112E-07,-78.087890625
8.10009887816013E-07,-78.2885513305664
8.15009948851915E-07,-78.5072937011719
8.20010009887816E-07,-78.7421188354492
8.25010070923717E-07,-78.9910354614258
8.30010131959619E-07,-79.2520294189453
8.3501019299552E-07,-79.5231246948242
8.40010254031421E-07,-79.8023071289063
8.45010315067323E-07,-80.0875778198242
8.50010376103224E-07,-80.376953125
8.55010437139125E-07,-80.6684265136719
8.60010498175026E-07,-80.9624557495117
8.65010559210928E-07,-81.2872161865234
8.70010620246829E-07,-81.6448822021484
8.7501068128273E-07,-82.0273284912109
8.80010742318632E-07,-82.4264526367188
8.85010803354533E-07,-82.8341217041016
8.90010864390434E-07,-83.2422256469727
8.95010925426336E-07,-83.6426391601563
9.00010986462237E-07,-84.0272445678711
9.05011047498138E-07,-84.3879318237305
9.1001110853404E-07,-84.7165756225586
9.15011169569941E-07,-85.0050659179688
9.20011230605842E-07,-85.2452697753906
9.25011291641744E-07,-85.4290771484375
9.30011352677645E-07,-85.551025390625
9.35011413713546E-07,-85.6165008544922
9.40011474749448E-07,-85.6336364746094
9.45011535785349E-07,-85.6105804443359
9.5001159682125E-07,-85.5554733276367
9.55011657857151E-07,-85.4764556884766
9.60011718893053E-07,-85.3816680908203
9.65011779928954E-07,-85.2792587280273
9.70011840964855E-07,-85.1773529052734
9.75011902000757E-07,-85.0841064453125
9.80011963036658E-07,-85.0076599121094
9.85012024072559E-07,-84.9561538696289
9.90012085108461E-07,-84.9377288818359
9.95012146144362E-07,-84.9611358642578
1.00001220718026E-06,-85.0282669067383
1.00501226821616E-06,-85.1299591064453
1.01001232925207E-06,-85.2565536499023
1.01501239028797E-06,-85.3984069824219
1.02001245132387E-06,-85.5458755493164
1.02501251235977E-06,-85.6892929077148
1.03001257339567E-06,-85.8190155029297
1.03501263443157E-06,-85.9253921508789
1.04001269546747E-06,-85.998779296875
1.04501275650338E-06,-86.0295181274414
1.05001281753928E-06,-86.0079650878906
1.05501287857518E-06,-85.9244613647461
1.06001293961108E-06,-85.7691650390625
1.06501300064698E-06,-85.5359497070313
1.07001306168288E-06,-85.2334594726563
1.07501312271878E-06,-84.8726577758789
1.08001318375468E-06,-84.4645309448242
1.08501324479059E-06,-84.0200500488281
1.09001330582649E-06,-83.550178527832
1.09501336686239E-06,-83.0658950805664
1.10001342789829E-06,-82.5781707763672
1.10501348893419E-06,-82.0979690551758
1.11001354997009E-06,-81.6362762451172
1.11501361100599E-06,-81.2040557861328
1.1200136720419E-06,-80.8122863769531
1.1250137330778E-06,-80.4719314575195
1.1300137941137E-06,-80.1603012084961
1.1350138551496E-06,-79.8498001098633
1.1400139161855E-06,-79.5440673828125
1.1450139772214E-06,-79.2467193603516
1.1500140382573E-06,-78.9613800048828
1.1550140992932E-06,-78.6916885375977
1.16001416032911E-06,-78.4412612915039
1.16501422136501E-06,-78.2137298583984
1.17001428240091E-06,-78.0127182006836
1.17501434343681E-06,-77.8418502807617
1.18001440447271E-06,-77.7047576904297
1.18501446550861E-06,-77.6050643920898
1.19001452654451E-06,-77.5464019775391
1.19501458758041E-06,-77.5167846679688
1.20001464861632E-06,-77.473274230957
1.20501470965222E-06,-77.424430847168
1.21001477068812E-06,-77.3828811645508
1.21501483172402E-06,-77.3612518310547
1.22001489275992E-06,-77.3721771240234
1.22501495379582E-06,-77.4282836914063
1.23001501483172E-06,-77.5421905517578
1.23501507586763E-06,-77.7265319824219
1.24001513690353E-06,-77.9939346313477
1.24501519793943E-06,-78.3570327758789
1.25001525897533E-06,-78.8284378051758
1.25501532001123E-06,-79.4207916259766
1.26001538104713E-06,-80.1565246582031
1.26501544208303E-06,-81.1559066772461
1.27001550311893E-06,-82.4090957641602
1.27501556415484E-06,-83.8621139526367
1.28001562519074E-06,-85.4609756469727
1.28501568622664E-06,-87.1517028808594
1.29001574726254E-06,-88.8803176879883
1.29501580829844E-06,-90.5928344726563
1.30001586933434E-06,-92.2352752685547
1.30501593037024E-06,-93.753662109375
1.31001599140614E-06,-95.0940093994141
1.31501605244205E-06,-96.2023391723633
1.32001611347795E-06,-97.0246734619141
1.32501617451385E-06,-97.5070266723633
1.33001623554975E-06,-97.6438674926758
1.33501629658565E-06,-97.4917678833008
1.34001635762155E-06,-97.0898971557617
1.34501641865745E-06,-96.477409362793
1.35001647969336E-06,-95.6934661865234
1.35501654072926E-06,-94.7772369384766
1.36001660176516E-06,-93.7678756713867
1.36501666280106E-06,-92.7045593261719
1.37001672383696E-06,-91.6264419555664
1.37501678487286E-06,-90.5726928710938
1.38001684590876E-06,-89.5824661254883
1.38501690694466E-06,-88.6949310302734
1.39001696798057E-06,-87.9492492675781
1.39501702901647E-06,-87.3433837890625
1.40001709005237E-06,-86.7647323608398
1.40501715108827E-06,-86.2043380737305
1.41001721212417E-06,-85.662841796875
1.41501727316007E-06,-85.140869140625
1.42001733419597E-06,-84.639045715332
1.42501739523188E-06,-84.1580047607422
1.43001745626778E-06,-83.6983795166016
1.43501751730368E-06,-83.2607955932617
1.44001757833958E-06,-82.8458938598633
1.44501763937548E-06,-82.4542922973633
1.45001770041138E-06,-82.0866317749023
1.45501776144728E-06,-81.743537902832
1.46001782248318E-06,-81.4257583618164
1.46501788351909E-06,-81.1349411010742
1.47001794455499E-06,-80.8705291748047
1.47501800559089E-06,-80.6313781738281
1.48001806662679E-06,-80.4163208007813
1.48501812766269E-06,-80.2242126464844
1.49001818869859E-06,-80.0538864135742
1.49501824973449E-06,-79.9041976928711
1.5000183107704E-06,-79.7739868164063
1.5050183718063E-06,-79.6620941162109
1.5100184328422E-06,-79.5673751831055
1.5150184938781E-06,-79.4886703491211
1.520018554914E-06,-79.4248199462891
1.5250186159499E-06,-79.3746719360352
1.5300186769858E-06,-79.3459930419922
1.5350187380217E-06,-79.3453369140625
1.54001879905761E-06,-79.3696975708008
1.54501886009351E-06,-79.4160690307617
1.55001892112941E-06,-79.4814605712891
1.55501898216531E-06,-79.5628662109375
1.56001904320121E-06,-79.6572799682617
1.56501910423711E-06,-79.7617111206055
1.57001916527301E-06,-79.8731536865234
1.57501922630891E-06,-79.9886093139648
1.58001928734482E-06,-80.1050720214844
1.58501934838072E-06,-80.2195434570313
1.59001940941662E-06,-80.3290252685547
1.59501947045252E-06,-80.435791015625
1.60001953148842E-06,-80.5543060302734
1.60501959252432E-06,-80.6835708618164
1.61001965356022E-06,-80.8212738037109
1.61501971459613E-06,-80.9651107788086
1.62001977563203E-06,-81.1127853393555
1.62501983666793E-06,-81.2619857788086
1.63001989770383E-06,-81.4104080200195
1.63501995873973E-06,-81.5557556152344
1.64002001977563E-06,-81.6957092285156
1.64502008081153E-06,-81.8279724121094
1.65002014184743E-06,-81.9502334594727
1.65502020288334E-06,-82.0602035522461
1.66002026391924E-06,-82.1554870605469
1.66502032495514E-06,-82.2343139648438
1.67002038599104E-06,-82.2987518310547
1.67502044702694E-06,-82.3515243530273
1.68002050806284E-06,-82.3953628540039
1.68502056909874E-06,-82.4330062866211
1.69002063013465E-06,-82.467170715332
1.69502069117055E-06,-82.5005950927734
1.70002075220645E-06,-82.5360107421875
1.70502081324235E-06,-82.5761337280273
1.71002087427825E-06,-82.6237106323242
1.71502093531415E-06,-82.6814651489258
1.72002099635005E-06,-82.7521286010742
1.72502105738595E-06,-82.8384246826172
1.73002111842186E-06,-82.9340591430664
1.73502117945776E-06,-83.0317153930664
1.74002124049366E-06,-83.1326141357422
1.74502130152956E-06,-83.2379913330078
1.75002136256546E-06,-83.3490524291992
1.75502142360136E-06,-83.4670257568359
1.76002148463726E-06,-83.593132019043
1.76502154567316E-06,-83.7286071777344
1.77002160670907E-06,-83.8746490478516
1.77502166774497E-06,-84.0325012207031
1.78002172878087E-06,-84.2033767700195
1.78502178981677E-06,-84.3884963989258
1.79002185085267E-06,-84.5890884399414
1.79502191188857E-06,-84.8118438720703
1.80002197292447E-06,-85.071891784668
1.80502203396038E-06,-85.3635711669922
1.81002209499628E-06,-85.6796951293945
1.81502215603218E-06,-86.0130767822266
1.82002221706808E-06,-86.3565292358398
1.82502227810398E-06,-86.7028579711914
1.83002233913988E-06,-87.0448837280273
1.83502240017578E-06,-87.3754196166992
1.84002246121168E-06,-87.6872711181641
1.84502252224759E-06,-87.973258972168
1.85002258328349E-06,-88.226188659668
1.85502264431939E-06,-88.4388732910156
1.86002270535529E-06,-88.6049346923828
1.86502276639119E-06,-88.7309188842773
1.87002282742709E-06,-88.8234176635742
1.87502288846299E-06,-88.8866806030273
1.8800229494989E-06,-88.9249420166016
1.8850230105348E-06,-88.9424591064453
1.8900230715707E-06,-88.943473815918
1.8950231326066E-06,-88.9322280883789
1.9000231936425E-06,-88.912971496582
1.9050232546784E-06,-88.8899459838867
1.9100233157143E-06,-88.8673934936523
1.9150233767502E-06,-88.8495712280273
1.92002343778611E-06,-88.840705871582
1.92502349882201E-06,-88.8450622558594
1.93002355985791E-06,-88.8383255004883
1.93502362089381E-06,-88.7993469238281
1.94002368192971E-06,-88.7370758056641
1.94502374296561E-06,-88.6604614257813
1.95002380400151E-06,-88.5784530639648
1.95502386503741E-06,-88.5000152587891
1.96002392607332E-06,-88.4340896606445
1.96502398710922E-06,-88.3896331787109
1.97002404814512E-06,-88.375602722168
1.97502410918102E-06,-88.4009475708008
1.98002417021692E-06,-88.4746170043945
1.98502423125282E-06,-88.6055679321289
1.99002429228872E-06,-88.8027572631836
1.99502435332463E-06,-89.0864410400391
2.00002441436053E-06,-89.4880676269531
2.00502447539643E-06,-89.9890670776367
2.01002453643233E-06,-90.5674896240234
2.01502459746823E-06,-91.2013702392578
2.02002465850413E-06,-91.8687515258789
2.02502471954003E-06,-92.5476684570313
2.03002478057593E-06,-93.216178894043
2.03502484161184E-06,-93.8523025512695
2.04002490264774E-06,-94.4340972900391
2.04502496368364E-06,-94.9395904541016
2.05002502471954E-06,-95.3468322753906
2.05502508575544E-06,-95.6338577270508
2.06002514679134E-06,-95.7790298461914
2.06502520782724E-06,-95.7774429321289
2.07002526886315E-06,-95.6488800048828
2.07502532989905E-06,-95.4151229858398
2.08002539093495E-06,-95.0979614257813
2.08502545197085E-06,-94.7191543579102
2.09002551300675E-06,-94.3004989624023
2.09502557404265E-06,-93.8637542724609
2.10002563507855E-06,-93.4307174682617
2.10502569611445E-06,-93.0231475830078
2.11002575715036E-06,-92.6628341674805
2.11502581818626E-06,-92.3715515136719
2.12002587922216E-06,-92.1710815429688
2.12502594025806E-06,-92.0831909179688
2.13002600129396E-06,-92.1270904541016
2.13502606232986E-06,-92.2914123535156
2.14002612336576E-06,-92.552116394043
2.14502618440166E-06,-92.885139465332
2.15002624543757E-06,-93.2664260864258
2.15502630647347E-06,-93.6719207763672
2.16002636750937E-06,-94.0775680541992
2.16502642854527E-06,-94.4593200683594
2.17002648958117E-06,-94.7931213378906
2.17502655061707E-06,-95.0549163818359
2.18002661165297E-06,-95.2206420898438
2.18502667268888E-06,-95.2662506103516
2.19002673372478E-06,-95.1676864624023
2.19502679476068E-06,-94.907096862793
2.20002685579658E-06,-94.5009765625
2.20502691683248E-06,-93.9700241088867
2.21002697786838E-06,-93.334228515625
2.21502703890428E-06,-92.6135635375977
2.22002709994018E-06,-91.827995300293
2.22502716097609E-06,-90.9975051879883
2.23002722201199E-06,-90.1420745849609
2.23502728304789E-06,-89.2816772460938
2.24002734408379E-06,-88.436279296875
2.24502740511969E-06,-87.6258697509766
2.25002746615559E-06,-86.8704223632813
2.25502752719149E-06,-86.1899032592773
2.2600275882274E-06,-85.5990600585938
2.2650276492633E-06,-85.0439529418945
2.2700277102992E-06,-84.5058212280273
2.2750277713351E-06,-83.985466003418
2.280027832371E-06,-83.4836730957031
2.2850278934069E-06,-83.0012359619141
2.2900279544428E-06,-82.538948059082
2.2950280154787E-06,-82.0976104736328
2.30002807651461E-06,-81.6780166625977
2.30502813755051E-06,-81.2809524536133
2.31002819858641E-06,-80.9072265625
2.31502825962231E-06,-80.5576171875
2.32002832065821E-06,-80.2329330444336
2.32502838169411E-06,-79.9339599609375
2.33002844273001E-06,-79.6647720336914
2.33502850376592E-06,-79.4272384643555
2.34002856480182E-06,-79.2188491821289
2.34502862583772E-06,-79.0370712280273
2.35002868687362E-06,-78.87939453125
2.35502874790952E-06,-78.7432861328125
2.36002880894542E-06,-78.6262435913086
2.36502886998132E-06,-78.5257339477539
2.37002893101722E-06,-78.4392471313477
2.37502899205313E-06,-78.3642501831055
2.38002905308903E-06,-78.2982406616211
2.38502911412493E-06,-78.2386779785156
2.39002917516083E-06,-78.1830673217773
2.39502923619673E-06,-78.133186340332
2.40002929723263E-06,-78.1008834838867
2.40502935826853E-06,-78.0854034423828
2.41002941930443E-06,-78.0849380493164
2.41502948034034E-06,-78.09765625
2.42002954137624E-06,-78.1217575073242
2.42502960241214E-06,-78.1554107666016
2.43002966344804E-06,-78.1968002319336
2.43502972448394E-06,-78.2441177368164
2.44002978551984E-06,-78.2955322265625
2.44502984655574E-06,-78.349235534668
2.45002990759165E-06,-78.4034118652344
2.45502996862755E-06,-78.4562377929688
2.46003002966345E-06,-78.5063095092773
2.46503009069935E-06,-78.5578384399414
2.47003015173525E-06,-78.6125106811523
