Trace
Swept SA
A.19.55,N9020B
508 AB2 B25 B40 B85 DP2 DP4 EP2 FS1 FS2 MPB RTL ,01
Segment,0
Number of Points,81920
Sweep Time,0.0004096
Start Frequency,2400000000
Stop Frequency,2400000000
Average Count,0
Average Type,LogPower(Video)
RBW,3000000
RBW Filter,Gaussian
RBW Filter BW,3dB
VBW,3000000
Sweep Type,Swept
X Axis Scale,Lin
PreAmp State,Off
PreAmp Band,Low
Trigger Source,Ext1
Trigger Level,1.2
Trigger Slope,Positive
Trigger Delay,1E-06
Phase Noise Optimization,Fast
Swept If Gain,Low
FFT If Gain,Autorange
RF Coupling,AC
FFT Width,411900
Ext Ref,10000000
Input,RF
RF Calibrator,Off
Attenuation,6
Ref Level Offset,0
External Gain,0
Trace Type,Clearwrite
Detector,Normal
Trace Math,Off
Trace Math Oper1,Trace5
Trace Math Oper2,Trace6
Trace Math Offset,0
Normalize,Off
Trace Name,Trace1
X Axis Units,s
Y Axis Units,dBm
DATA
0,-40.6955261230469
5.00006103590132E-09,-41.3036613464355
1.00001220718026E-08,-41.9403800964355
1.50001831077039E-08,-42.5920791625977
2.00002441436053E-08,-43.2451477050781
2.50003051795066E-08,-43.8859786987305
3.00003662154079E-08,-44.5009613037109
3.50004272513092E-08,-45.0764923095703
4.00004882872105E-08,-45.5989608764648
4.50005493231118E-08,-46.054759979248
5.00006103590132E-08,-46.4302787780762
5.50006713949145E-08,-46.7119140625
6.00007324308158E-08,-46.8862419128418
6.50007934667171E-08,-46.9501914978027
7.00008545026184E-08,-46.9160194396973
7.50009155385197E-08,-46.7972450256348
8.00009765744211E-08,-46.6073722839355
8.50010376103224E-08,-46.3599128723145
9.00010986462237E-08,-46.0683746337891
9.5001159682125E-08,-45.7462692260742
1.00001220718026E-07,-45.4071044921875
1.05001281753928E-07,-45.0643882751465
1.10001342789829E-07,-44.7316360473633
1.1500140382573E-07,-44.4223556518555
1.20001464861632E-07,-44.1500511169434
1.25001525897533E-07,-43.9282379150391
1.30001586933434E-07,-43.7302055358887
1.35001647969336E-07,-43.5228309631348
1.40001709005237E-07,-43.3099632263184
1.45001770041138E-07,-43.0954780578613
1.50001831077039E-07,-42.883228302002
1.55001892112941E-07,-42.6770820617676
1.60001953148842E-07,-42.480899810791
1.65002014184743E-07,-42.2985458374023
1.70002075220645E-07,-42.1338844299316
1.75002136256546E-07,-41.9907760620117
1.80002197292447E-07,-41.8730850219727
1.85002258328349E-07,-41.7846755981445
1.9000231936425E-07,-41.7294082641602
1.95002380400151E-07,-41.7076568603516
2.00002441436053E-07,-41.709903717041
2.05002502471954E-07,-41.7348098754883
2.10002563507855E-07,-41.7818183898926
2.15002624543757E-07,-41.8503837585449
2.20002685579658E-07,-41.9399490356445
2.25002746615559E-07,-42.0499687194824
2.30002807651461E-07,-42.1798858642578
2.35002868687362E-07,-42.3291473388672
2.40002929723263E-07,-42.4972076416016
2.45002990759165E-07,-42.6835136413574
2.50003051795066E-07,-42.887508392334
2.55003112830967E-07,-43.1086463928223
2.60003173866868E-07,-43.3481254577637
2.6500323490277E-07,-43.6263122558594
2.70003295938671E-07,-43.9439811706543
2.75003356974572E-07,-44.29443359375
2.80003418010474E-07,-44.6709938049316
2.85003479046375E-07,-45.0669708251953
2.90003540082276E-07,-45.4756736755371
2.95003601118178E-07,-45.8904228210449
3.00003662154079E-07,-46.3045272827148
3.0500372318998E-07,-46.7112998962402
3.10003784225882E-07,-47.1040534973145
3.15003845261783E-07,-47.4761009216309
3.20003906297684E-07,-47.8207588195801
3.25003967333586E-07,-48.1313362121582
3.30004028369487E-07,-48.4060096740723
3.35004089405388E-07,-48.651008605957
3.4000415044129E-07,-48.8717384338379
3.45004211477191E-07,-49.0736122131348
3.50004272513092E-07,-49.2620391845703
3.55004333548993E-07,-49.4424209594727
3.60004394584895E-07,-49.6201705932617
3.65004455620796E-07,-49.8006973266602
3.70004516656697E-07,-49.9894027709961
3.75004577692599E-07,-50.1916961669922
3.800046387285E-07,-50.4129905700684
3.85004699764401E-07,-50.65869140625
3.90004760800303E-07,-50.9342041015625
3.95004821836204E-07,-51.250373840332
4.00004882872105E-07,-51.6223258972168
4.05004943908007E-07,-52.039966583252
4.10005004943908E-07,-52.4915199279785
4.15005065979809E-07,-52.965217590332
4.20005127015711E-07,-53.4492874145508
4.25005188051612E-07,-53.9319610595703
4.30005249087513E-07,-54.4014663696289
4.35005310123415E-07,-54.8460311889648
4.40005371159316E-07,-55.2538833618164
4.45005432195217E-07,-55.6132545471191
4.50005493231119E-07,-55.9123725891113
4.5500555426702E-07,-56.1394691467285
4.60005615302921E-07,-56.2828140258789
4.65005676338822E-07,-56.3383674621582
4.70005737374724E-07,-56.3167152404785
4.75005798410625E-07,-56.2300415039063
4.80005859446526E-07,-56.0905113220215
4.85005920482428E-07,-55.9103012084961
4.90005981518329E-07,-55.7015838623047
4.9500604255423E-07,-55.4765357971191
5.00006103590132E-07,-55.2473335266113
5.05006164626033E-07,-55.0261421203613
5.10006225661934E-07,-54.8251419067383
5.15006286697836E-07,-54.6565055847168
5.20006347733737E-07,-54.5324096679688
5.25006408769638E-07,-54.4650192260742
5.3000646980554E-07,-54.4362525939941
5.35006530841441E-07,-54.420280456543
5.40006591877342E-07,-54.4176826477051
5.45006652913243E-07,-54.429027557373
5.50006713949145E-07,-54.4548988342285
5.55006774985046E-07,-54.4958686828613
5.60006836020948E-07,-54.5525131225586
5.65006897056849E-07,-54.6254081726074
5.7000695809275E-07,-54.7151298522949
5.75007019128651E-07,-54.8222503662109
5.80007080164553E-07,-54.9473533630371
5.85007141200454E-07,-55.091007232666
5.90007202236355E-07,-55.253791809082
5.95007263272257E-07,-55.4510154724121
6.00007324308158E-07,-55.7233123779297
6.05007385344059E-07,-56.0583381652832
6.10007446379961E-07,-56.439754486084
6.15007507415862E-07,-56.8512191772461
6.20007568451763E-07,-57.2763900756836
6.25007629487665E-07,-57.6989250183105
6.30007690523566E-07,-58.1024856567383
6.35007751559467E-07,-58.4707298278809
6.40007812595369E-07,-58.7873191833496
6.4500787363127E-07,-59.0359077453613
6.50007934667171E-07,-59.2001609802246
6.55007995703072E-07,-59.263729095459
6.60008056738974E-07,-59.2099723815918
6.65008117774875E-07,-59.0288772583008
6.70008178810776E-07,-58.7350845336914
6.75008239846678E-07,-58.347053527832
6.80008300882579E-07,-57.8832321166992
6.8500836191848E-07,-57.3620681762695
6.90008422954382E-07,-56.8020210266113
6.95008483990283E-07,-56.2215385437012
7.00008545026184E-07,-55.6390724182129
7.05008606062086E-07,-55.073070526123
7.10008667097987E-07,-54.5419883728027
7.15008728133888E-07,-54.0642776489258
7.2000878916979E-07,-53.658390045166
7.25008850205691E-07,-53.3427734375
7.30008911241592E-07,-53.1028480529785
7.35008972277494E-07,-52.9081420898438
7.40009033313395E-07,-52.7532920837402
7.45009094349296E-07,-52.6329193115234
7.50009155385198E-07,-52.5416526794434
7.55009216421099E-07,-52.4741172790527
7.60009277457E-07,-52.4249458312988
7.65009338492901E-07,-52.3887596130371
7.70009399528803E-07,-52.3601913452148
7.75009460564704E-07,-52.3338661193848
7.80009521600605E-07,-52.3044090270996
7.85009582636507E-07,-52.2664527893066
7.90009643672408E-07,-52.2146224975586
7.95009704708309E-07,-52.1518745422363
8.00009765744211E-07,-52.1010551452637
8.05009826780112E-07,-52.0612487792969
8.10009887816013E-07,-52.0295181274414
8.15009948851915E-07,-52.0029182434082
8.20010009887816E-07,-51.9785041809082
8.25010070923717E-07,-51.9533309936523
8.30010131959619E-07,-51.9244537353516
8.3501019299552E-07,-51.8889312744141
8.40010254031421E-07,-51.843822479248
8.45010315067323E-07,-51.7861785888672
8.50010376103224E-07,-51.7130546569824
8.55010437139125E-07,-51.621509552002
8.60010498175026E-07,-51.507698059082
8.65010559210928E-07,-51.3598175048828
8.70010620246829E-07,-51.1803817749023
8.7501068128273E-07,-50.9762382507324
8.80010742318632E-07,-50.7542381286621
8.85010803354533E-07,-50.5212326049805
8.90010864390434E-07,-50.2840766906738
8.95010925426336E-07,-50.0496139526367
9.00010986462237E-07,-49.8246955871582
9.05011047498138E-07,-49.6161766052246
9.1001110853404E-07,-49.4309043884277
9.15011169569941E-07,-49.2757301330566
9.20011230605842E-07,-49.1575050354004
9.25011291641744E-07,-49.083080291748
9.30011352677645E-07,-49.043212890625
9.35011413713546E-07,-49.0240058898926
9.40011474749448E-07,-49.0253295898438
9.45011535785349E-07,-49.047046661377
9.5001159682125E-07,-49.0890274047852
9.55011657857151E-07,-49.1511344909668
9.60011718893053E-07,-49.2332382202148
9.65011779928954E-07,-49.335205078125
9.70011840964855E-07,-49.456901550293
9.75011902000757E-07,-49.5981979370117
9.80011963036658E-07,-49.7589530944824
9.85012024072559E-07,-49.9390449523926
9.90012085108461E-07,-50.1383323669434
9.95012146144362E-07,-50.3730583190918
1.00001220718026E-06,-50.688362121582
1.00501226821616E-06,-51.0713500976563
1.01001232925207E-06,-51.504711151123
1.01501239028797E-06,-51.9711456298828
1.02001245132387E-06,-52.4533500671387
1.02501251235977E-06,-52.934009552002
1.03001257339567E-06,-53.3958282470703
1.03501263443157E-06,-53.8214950561523
1.04001269546747E-06,-54.1937026977539
1.04501275650338E-06,-54.4951515197754
1.05001281753928E-06,-54.7085342407227
1.05501287857518E-06,-54.8165435791016
1.06001293961108E-06,-54.8016510009766
1.06501300064698E-06,-54.6543922424316
1.07001306168288E-06,-54.3903007507324
1.07501312271878E-06,-54.0285148620605
1.08001318375468E-06,-53.5881652832031
1.08501324479059E-06,-53.0883865356445
1.09001330582649E-06,-52.5483131408691
1.09501336686239E-06,-51.9870834350586
1.10001342789829E-06,-51.4238319396973
1.10501348893419E-06,-50.8776931762695
1.11001354997009E-06,-50.367805480957
1.11501361100599E-06,-49.9132957458496
1.1200136720419E-06,-49.5333061218262
1.1250137330778E-06,-49.2469711303711
1.1300137941137E-06,-49.0359344482422
1.1350138551496E-06,-48.8664169311523
1.1400139161855E-06,-48.7344169616699
1.1450139772214E-06,-48.6359405517578
1.1500140382573E-06,-48.5669860839844
1.1550140992932E-06,-48.523551940918
1.16001416032911E-06,-48.5016403198242
1.16501422136501E-06,-48.4972496032715
1.17001428240091E-06,-48.5063781738281
1.17501434343681E-06,-48.5250358581543
1.18001440447271E-06,-48.5492134094238
1.18501446550861E-06,-48.5749130249023
1.19001452654451E-06,-48.5981369018555
1.19501458758041E-06,-48.6238594055176
1.20001464861632E-06,-48.6767234802246
1.20501470965222E-06,-48.7538414001465
1.21001477068812E-06,-48.8500747680664
1.21501483172402E-06,-48.9602737426758
1.22001489275992E-06,-49.0792999267578
1.22501495379582E-06,-49.2020034790039
1.23001501483172E-06,-49.3232421875
1.23501507586763E-06,-49.4378700256348
1.24001513690353E-06,-49.5407409667969
1.24501519793943E-06,-49.6267166137695
1.25001525897533E-06,-49.6906471252441
1.25501532001123E-06,-49.7273864746094
1.26001538104713E-06,-49.731517791748
1.26501544208303E-06,-49.6977920532227
1.27001550311893E-06,-49.6307945251465
1.27501556415484E-06,-49.5370712280273
1.28001562519074E-06,-49.4231719970703
1.28501568622664E-06,-49.2956466674805
1.29001574726254E-06,-49.1610488891602
1.29501580829844E-06,-49.0259170532227
1.30001586933434E-06,-48.8968124389648
1.30501593037024E-06,-48.7802772521973
1.31001599140614E-06,-48.682861328125
1.31501605244205E-06,-48.6111145019531
1.32001611347795E-06,-48.571590423584
1.32501617451385E-06,-48.5708312988281
1.33001623554975E-06,-48.5991668701172
1.33501629658565E-06,-48.642749786377
1.34001635762155E-06,-48.7018585205078
1.34501641865745E-06,-48.7767677307129
1.35001647969336E-06,-48.8677673339844
1.35501654072926E-06,-48.9751281738281
1.36001660176516E-06,-49.0991363525391
1.36501666280106E-06,-49.2400703430176
1.37001672383696E-06,-49.3982048034668
1.37501678487286E-06,-49.5738296508789
1.38001684590876E-06,-49.7672157287598
1.38501690694466E-06,-49.9786491394043
1.39001696798057E-06,-50.2084045410156
1.39501702901647E-06,-50.4725761413574
1.40001709005237E-06,-50.8147506713867
1.40501715108827E-06,-51.2220458984375
1.41001721212417E-06,-51.6772994995117
1.41501727316007E-06,-52.1633529663086
1.42001733419597E-06,-52.6630477905273
1.42501739523188E-06,-53.1592216491699
1.43001745626778E-06,-53.6347198486328
1.43501751730368E-06,-54.072380065918
1.44001757833958E-06,-54.4550399780273
1.44501763937548E-06,-54.7655448913574
1.45001770041138E-06,-54.9867324829102
1.45501776144728E-06,-55.101448059082
1.46001782248318E-06,-55.0924072265625
1.46501788351909E-06,-54.9514961242676
1.47001794455499E-06,-54.6941337585449
1.47501800559089E-06,-54.3388404846191
1.48001806662679E-06,-53.9041519165039
1.48501812766269E-06,-53.4085922241211
1.49001818869859E-06,-52.8706932067871
1.49501824973449E-06,-52.3089828491211
1.5000183107704E-06,-51.7419891357422
1.5050183718063E-06,-51.1882400512695
1.5100184328422E-06,-50.6662635803223
1.5150184938781E-06,-50.1945915222168
1.520018554914E-06,-49.7917518615723
1.5250186159499E-06,-49.4762725830078
1.5300186769858E-06,-49.2384643554688
1.5350187380217E-06,-49.0510864257813
1.54001879905761E-06,-48.9063301086426
1.54501886009351E-06,-48.7963905334473
1.55001892112941E-06,-48.7134590148926
1.55501898216531E-06,-48.6497268676758
1.56001904320121E-06,-48.5973930358887
1.56501910423711E-06,-48.5486450195313
1.57001916527301E-06,-48.4956817626953
1.57501922630891E-06,-48.4306907653809
1.58001928734482E-06,-48.3458709716797
1.58501934838072E-06,-48.2334098815918
1.59001940941662E-06,-48.085506439209
1.59501947045252E-06,-47.9040145874023
1.60001953148842E-06,-47.7153968811035
1.60501959252432E-06,-47.5202751159668
1.61001965356022E-06,-47.3169784545898
1.61501971459613E-06,-47.1038246154785
1.62001977563203E-06,-46.8791427612305
1.62501983666793E-06,-46.6412544250488
1.63001989770383E-06,-46.3884811401367
1.63501995873973E-06,-46.1191520690918
1.64002001977563E-06,-45.8315887451172
1.64502008081153E-06,-45.524112701416
1.65002014184743E-06,-45.1950492858887
1.65502020288334E-06,-44.8427238464355
1.66002026391924E-06,-44.4644584655762
1.66502032495514E-06,-44.047794342041
1.67002038599104E-06,-43.5940933227539
1.67502044702694E-06,-43.1092758178711
1.68002050806284E-06,-42.5992660522461
1.68502056909874E-06,-42.0699920654297
1.69002063013465E-06,-41.5273780822754
1.69502069117055E-06,-40.9773483276367
1.70002075220645E-06,-40.4258270263672
1.70502081324235E-06,-39.8787422180176
1.71002087427825E-06,-39.3420181274414
1.71502093531415E-06,-38.8215751647949
1.72002099635005E-06,-38.3233451843262
1.72502105738595E-06,-37.8532524108887
1.73002111842186E-06,-37.3979377746582
1.73502117945776E-06,-36.9417686462402
1.74002124049366E-06,-36.4872360229492
1.74502130152956E-06,-36.0368309020996
1.75002136256546E-06,-35.5930442810059
1.75502142360136E-06,-35.1583671569824
1.76002148463726E-06,-34.735294342041
1.76502154567316E-06,-34.3263130187988
1.77002160670907E-06,-33.9339218139648
1.77502166774497E-06,-33.5606079101563
1.78002172878087E-06,-33.2088623046875
1.78502178981677E-06,-32.8811798095703
1.79002185085267E-06,-32.5800552368164
1.79502191188857E-06,-32.304557800293
1.80002197292447E-06,-32.0453453063965
1.80502203396038E-06,-31.8024768829346
1.81002209499628E-06,-31.5768375396729
1.81502215603218E-06,-31.369312286377
1.82002221706808E-06,-31.1807842254639
1.82502227810398E-06,-31.0121402740479
1.83002233913988E-06,-30.8642635345459
1.83502240017578E-06,-30.738037109375
1.84002246121168E-06,-30.6343479156494
1.84502252224759E-06,-30.5540790557861
1.85002258328349E-06,-30.4981155395508
1.85502264431939E-06,-30.467342376709
1.86002270535529E-06,-30.4622459411621
1.86502276639119E-06,-30.4784736633301
1.87002282742709E-06,-30.5151672363281
1.87502288846299E-06,-30.573055267334
1.8800229494989E-06,-30.652868270874
1.8850230105348E-06,-30.755334854126
1.8900230715707E-06,-30.8811798095703
1.8950231326066E-06,-31.0311336517334
1.9000231936425E-06,-31.205924987793
1.9050232546784E-06,-31.4062805175781
1.9100233157143E-06,-31.6329307556152
1.9150233767502E-06,-31.8866024017334
1.92002343778611E-06,-32.168025970459
1.92502349882201E-06,-32.4779243469238
1.93002355985791E-06,-32.819408416748
1.93502362089381E-06,-33.1937522888184
1.94002368192971E-06,-33.5989646911621
1.94502374296561E-06,-34.0330352783203
1.95002380400151E-06,-34.4939651489258
1.95502386503741E-06,-34.9797515869141
1.96002392607332E-06,-35.4883995056152
1.96502398710922E-06,-36.0178985595703
1.97002404814512E-06,-36.5662498474121
1.97502410918102E-06,-37.1314506530762
1.98002417021692E-06,-37.7115020751953
1.98502423125282E-06,-38.3044052124023
1.99002429228872E-06,-38.9081497192383
1.99502435332463E-06,-39.537425994873
2.00002441436053E-06,-40.2381896972656
2.00502447539643E-06,-40.9992866516113
2.01002453643233E-06,-41.8051414489746
2.01502459746823E-06,-42.6401824951172
2.02002465850413E-06,-43.4888343811035
2.02502471954003E-06,-44.3355293273926
2.03002478057593E-06,-45.1646881103516
2.03502484161184E-06,-45.9607391357422
2.04002490264774E-06,-46.7081069946289
2.04502496368364E-06,-47.3912200927734
2.05002502471954E-06,-47.9945068359375
2.05502508575544E-06,-48.5023918151855
2.06002514679134E-06,-48.9015121459961
2.06502520782724E-06,-49.2118492126465
2.07002526886315E-06,-49.4477386474609
2.07502532989905E-06,-49.6163558959961
2.08002539093495E-06,-49.7248687744141
2.08502545197085E-06,-49.7804412841797
2.09002551300675E-06,-49.7902412414551
2.09502557404265E-06,-49.7614402770996
2.10002563507855E-06,-49.7012023925781
2.10502569611445E-06,-49.61669921875
2.11002575715036E-06,-49.5150947570801
2.11502581818626E-06,-49.4035568237305
2.12002587922216E-06,-49.2892570495605
2.12502594025806E-06,-49.1793556213379
2.13002600129396E-06,-49.0538673400879
2.13502606232986E-06,-48.8912620544434
2.14002612336576E-06,-48.6964302062988
2.14502618440166E-06,-48.4742584228516
2.15002624543757E-06,-48.2296257019043
2.15502630647347E-06,-47.9674263000488
2.16002636750937E-06,-47.6925392150879
2.16502642854527E-06,-47.4098472595215
2.17002648958117E-06,-47.1242408752441
2.17502655061707E-06,-46.8406066894531
2.18002661165297E-06,-46.5638236999512
2.18502667268888E-06,-46.2987785339355
2.19002673372478E-06,-46.0503616333008
2.19502679476068E-06,-45.8153648376465
2.20002685579658E-06,-45.5716247558594
2.20502691683248E-06,-45.320369720459
2.21002697786838E-06,-45.0648155212402
2.21502703890428E-06,-44.8081855773926
2.22002709994018E-06,-44.5536994934082
2.22502716097609E-06,-44.3045692443848
2.23002722201199E-06,-44.064022064209
2.23502728304789E-06,-43.8352737426758
2.24002734408379E-06,-43.6215438842773
2.24502740511969E-06,-43.4260520935059
2.25002746615559E-06,-43.2520179748535
2.25502752719149E-06,-43.1026573181152
2.2600275882274E-06,-42.9796676635742
2.2650276492633E-06,-42.8663368225098
2.2700277102992E-06,-42.7595367431641
2.2750277713351E-06,-42.6622200012207
2.280027832371E-06,-42.5773544311523
2.2850278934069E-06,-42.5078926086426
2.2900279544428E-06,-42.4567947387695
2.2950280154787E-06,-42.4270172119141
2.30002807651461E-06,-42.4215240478516
2.30502813755051E-06,-42.4432716369629
2.31002819858641E-06,-42.4952201843262
2.31502825962231E-06,-42.580322265625
2.32002832065821E-06,-42.701545715332
2.32502838169411E-06,-42.8618431091309
2.33002844273001E-06,-43.076000213623
2.33502850376592E-06,-43.3506965637207
2.34002856480182E-06,-43.6767463684082
2.34502862583772E-06,-44.0449562072754
2.35002868687362E-06,-44.4461326599121
2.35502874790952E-06,-44.8710899353027
2.36002880894542E-06,-45.3106346130371
2.36502886998132E-06,-45.7555770874023
2.37002893101722E-06,-46.1967239379883
2.37502899205313E-06,-46.624885559082
2.38002905308903E-06,-47.0308685302734
2.38502911412493E-06,-47.4054908752441
2.39002917516083E-06,-47.7395515441895
2.39502923619673E-06,-48.0368919372559
2.40002929723263E-06,-48.3332023620605
2.40502935826853E-06,-48.6279067993164
2.41002941930443E-06,-48.9172782897949
2.41502948034034E-06,-49.1975860595703
2.42002954137624E-06,-49.4650993347168
2.42502960241214E-06,-49.7160911560059
2.43002966344804E-06,-49.946834564209
2.43502972448394E-06,-50.1535949707031
2.44002978551984E-06,-50.332649230957
2.44502984655574E-06,-50.4802665710449
2.45002990759165E-06,-50.592716217041
2.45502996862755E-06,-50.6662712097168
2.46003002966345E-06,-50.6954383850098
2.46503009069935E-06,-50.6580009460449
2.47003015173525E-06,-50.5570449829102
