Trace
Swept SA
A.19.55,N9020B
508 AB2 B25 B40 B85 DP2 DP4 EP2 FS1 FS2 MPB RTL ,01
Segment,0
Number of Points,81920
Sweep Time,0.000452266667
Start Frequency,2400000000
Stop Frequency,2400000000
Average Count,1
Average Type,LogPower(Video)
RBW,3000000
RBW Filter,Gaussian
RBW Filter BW,3dB
VBW,3000000
Sweep Type,Swept
X Axis Scale,Lin
PreAmp State,Off
PreAmp Band,Low
Trigger Source,Ext1
Trigger Level,1.2
Trigger Slope,Positive
Trigger Delay,1E-06
Phase Noise Optimization,Fast
Swept If Gain,Low
FFT If Gain,Autorange
RF Coupling,AC
FFT Width,411900
Ext Ref,10000000
Input,RF
RF Calibrator,Off
Attenuation,6
Ref Level Offset,0
External Gain,0
Trace Type,Clearwrite
Detector,Normal
Trace Math,Off
Trace Math Oper1,Trace5
Trace Math Oper2,Trace6
Trace Math Offset,0
Normalize,Off
Trace Name,Trace1
X Axis Units,s
Y Axis Units,dBm
DATA
0,-49.6154670715332
5.5209007312101E-09,-51.2082366943359
1.10418014624202E-08,-52.9269866943359
1.65627021936303E-08,-54.7166481018066
2.20836029248404E-08,-56.5221519470215
2.76045036560505E-08,-58.2884292602539
3.31254043872606E-08,-59.9604148864746
3.86463051184707E-08,-61.483039855957
4.41672058496808E-08,-62.8012313842773
4.96881065808909E-08,-63.8599243164063
5.5209007312101E-08,-64.6040496826172
6.07299080433111E-08,-65.015007019043
6.62508087745212E-08,-65.1533966064453
7.17717095057313E-08,-65.0563812255859
7.72926102369414E-08,-64.7603149414063
8.28135109681515E-08,-64.3015518188477
8.83344116993616E-08,-63.7164611816406
9.38553124305717E-08,-63.0413932800293
9.93762131617818E-08,-62.3127059936523
1.04897113892992E-07,-61.5667533874512
1.10418014624202E-07,-60.839900970459
1.15938915355412E-07,-60.1684989929199
1.21459816086622E-07,-59.5889129638672
1.26980716817832E-07,-59.083553314209
1.32501617549042E-07,-58.5514221191406
1.38022518280252E-07,-57.9946708679199
1.43543419011463E-07,-57.4198226928711
1.49064319742673E-07,-56.8333854675293
1.54585220473883E-07,-56.241886138916
1.60106121205093E-07,-55.6518363952637
1.65627021936303E-07,-55.0697555541992
1.71147922667513E-07,-54.5021591186523
1.76668823398723E-07,-53.9555702209473
1.82189724129933E-07,-53.4364967346191
1.87710624861143E-07,-52.9514656066895
1.93231525592353E-07,-52.4957618713379
1.98752426323564E-07,-52.0423393249512
2.04273327054774E-07,-51.5939598083496
2.09794227785984E-07,-51.1554565429688
2.15315128517194E-07,-50.7316627502441
2.20836029248404E-07,-50.3274116516113
2.26356929979614E-07,-49.9475326538086
2.31877830710824E-07,-49.596866607666
2.37398731442034E-07,-49.2802429199219
2.42919632173244E-07,-49.0024909973145
2.48440532904454E-07,-48.7684516906738
2.53961433635664E-07,-48.5829544067383
2.59482334366875E-07,-48.439567565918
2.65003235098085E-07,-48.3026428222656
2.70524135829295E-07,-48.1777763366699
2.76045036560505E-07,-48.0748291015625
2.81565937291715E-07,-48.0036544799805
2.87086838022925E-07,-47.97412109375
2.92607738754135E-07,-47.9960746765137
2.98128639485345E-07,-48.0793838500977
3.03649540216555E-07,-48.2338981628418
3.09170440947765E-07,-48.469482421875
3.14691341678976E-07,-48.7959938049316
3.20212242410186E-07,-49.2232894897461
3.25733143141396E-07,-49.7835350036621
3.31254043872606E-07,-50.5743217468262
3.36774944603816E-07,-51.5633850097656
3.42295845335026E-07,-52.7011489868164
3.47816746066236E-07,-53.9380340576172
3.53337646797446E-07,-55.2244644165039
3.58858547528656E-07,-56.5108680725098
3.64379448259866E-07,-57.7476577758789
3.69900348991077E-07,-58.8852691650391
3.75421249722287E-07,-59.8741149902344
3.80942150453497E-07,-60.6646270751953
3.86463051184707E-07,-61.2072257995605
3.91983951915917E-07,-61.4596481323242
3.97504852647127E-07,-61.4527168273926
4.03025753378337E-07,-61.2281951904297
4.08546654109547E-07,-60.8226890563965
4.14067554840757E-07,-60.2728004455566
4.19588455571967E-07,-59.6151237487793
4.25109356303178E-07,-58.8862648010254
4.30630257034388E-07,-58.1228218078613
4.36151157765598E-07,-57.3613929748535
4.41672058496808E-07,-56.6385879516602
4.47192959228018E-07,-55.9909973144531
4.52713859959228E-07,-55.4552230834961
4.58234760690438E-07,-55.0534782409668
4.63755661421648E-07,-54.6775398254395
4.69276562152858E-07,-54.3037300109863
4.74797462884068E-07,-53.9400672912598
4.80318363615278E-07,-53.5945625305176
4.85839264346489E-07,-53.2752227783203
4.91360165077699E-07,-52.990062713623
4.96881065808909E-07,-52.7470932006836
5.02401966540119E-07,-52.5543212890625
5.07922867271329E-07,-52.4197654724121
5.13443768002539E-07,-52.351432800293
5.18964668733749E-07,-52.3573379516602
5.24485569464959E-07,-52.4480400085449
5.30006470196169E-07,-52.6587409973145
5.3552737092738E-07,-52.9820098876953
5.4104827165859E-07,-53.3967208862305
5.465691723898E-07,-53.8817558288574
5.5209007312101E-07,-54.4159889221191
5.5761097385222E-07,-54.9782943725586
5.6313187458343E-07,-55.5475463867188
5.6865277531464E-07,-56.1026268005371
5.7417367604585E-07,-56.6224098205566
5.7969457677706E-07,-57.0857696533203
5.8521547750827E-07,-57.4715843200684
5.90736378239481E-07,-57.7611389160156
5.96257278970691E-07,-57.9941902160645
6.01778179701901E-07,-58.1930732727051
6.07299080433111E-07,-58.3594360351563
6.12819981164321E-07,-58.494930267334
6.18340881895531E-07,-58.6012001037598
6.23861782626741E-07,-58.6798934936523
6.29382683357951E-07,-58.7326622009277
6.34903584089161E-07,-58.7611503601074
6.40424484820371E-07,-58.7670097351074
6.45945385551581E-07,-58.751880645752
6.51466286282792E-07,-58.7174186706543
6.56987187014002E-07,-58.6645889282227
6.62508087745212E-07,-58.5667419433594
6.68028988476422E-07,-58.4168357849121
6.73549889207632E-07,-58.2250556945801
6.79070789938842E-07,-58.0016059875488
6.84591690670052E-07,-57.7566795349121
6.90112591401262E-07,-57.5004653930664
6.95633492132472E-07,-57.2431678771973
7.01154392863682E-07,-56.9949760437012
7.06675293594893E-07,-56.7660865783691
7.12196194326103E-07,-56.5666923522949
7.17717095057313E-07,-56.4069938659668
7.23237995788523E-07,-56.2971000671387
7.28758896519733E-07,-56.2334060668945
7.34279797250943E-07,-56.2048568725586
7.39800697982153E-07,-56.2056274414063
7.45321598713363E-07,-56.2298965454102
7.50842499444573E-07,-56.2718505859375
7.56363400175783E-07,-56.3256645202637
7.61884300906994E-07,-56.3855209350586
7.67405201638204E-07,-56.4455986022949
7.72926102369414E-07,-56.5000762939453
7.78447003100624E-07,-56.5431327819824
7.83967903831834E-07,-56.5689544677734
7.89488804563044E-07,-56.5717163085938
7.95009705294254E-07,-56.5515594482422
8.00530606025464E-07,-56.514705657959
8.06051506756674E-07,-56.4649353027344
8.11572407487884E-07,-56.4060173034668
8.17093308219094E-07,-56.3417358398438
8.22614208950305E-07,-56.2758636474609
8.28135109681515E-07,-56.2121810913086
8.33656010412725E-07,-56.1544609069824
8.39176911143935E-07,-56.1064758300781
8.44697811875145E-07,-56.0720100402832
8.50218712606355E-07,-56.0548400878906
8.55739613337565E-07,-56.0587348937988
8.61260514068775E-07,-56.0676879882813
8.66781414799985E-07,-56.0632553100586
8.72302315531195E-07,-56.0529289245605
8.77823216262406E-07,-56.0442771911621
8.83344116993616E-07,-56.044864654541
8.88865017724826E-07,-56.062255859375
8.94385918456036E-07,-56.1040229797363
8.99906819187246E-07,-56.1777305603027
9.05427719918456E-07,-56.290943145752
9.10948620649666E-07,-56.451229095459
9.16469521380876E-07,-56.6661567687988
9.21990422112086E-07,-56.9432907104492
9.27511322843296E-07,-57.319938659668
9.33032223574507E-07,-57.8304138183594
9.38553124305717E-07,-58.4456405639648
9.44074025036927E-07,-59.1357574462891
9.49594925768137E-07,-59.8708839416504
9.55115826499347E-07,-60.621150970459
9.60636727230557E-07,-61.356689453125
9.66157627961767E-07,-62.0476264953613
9.71678528692977E-07,-62.6640930175781
9.77199429424187E-07,-63.176212310791
9.82720330155397E-07,-63.5541152954102
9.88241230886608E-07,-63.7679290771484
9.93762131617818E-07,-63.7970237731934
9.99283032349028E-07,-63.6611289978027
1.00480393308024E-06,-63.38671875
1.01032483381145E-06,-63.0000343322754
1.01584573454266E-06,-62.5273208618164
1.02136663527387E-06,-61.9948272705078
1.02688753600508E-06,-61.4287872314453
1.03240843673629E-06,-60.8554534912109
1.0379293374675E-06,-60.3010673522949
1.04345023819871E-06,-59.7918739318848
1.04897113892992E-06,-59.3541145324707
1.05449203966113E-06,-59.0140342712402
1.06001294039234E-06,-58.7720069885254
1.06553384112355E-06,-58.5691795349121
1.07105474185476E-06,-58.3989334106445
1.07657564258597E-06,-58.2582931518555
1.08209654331718E-06,-58.1442832946777
1.08761744404839E-06,-58.0539321899414
1.0931383447796E-06,-57.9842643737793
1.09865924551081E-06,-57.932300567627
1.10418014624202E-06,-57.8950653076172
1.10970104697323E-06,-57.8695907592773
1.11522194770444E-06,-57.8528938293457
1.12074284843565E-06,-57.8420028686523
1.12626374916686E-06,-57.8429489135742
1.13178464989807E-06,-57.8823623657227
1.13730555062928E-06,-57.9549980163574
1.14282645136049E-06,-58.0526809692383
1.1483473520917E-06,-58.1672401428223
1.15386825282291E-06,-58.2905006408691
1.15938915355412E-06,-58.4142913818359
1.16491005428533E-06,-58.5304374694824
1.17043095501654E-06,-58.6307640075684
1.17595185574775E-06,-58.707103729248
1.18147275647896E-06,-58.7512817382813
1.18699365721017E-06,-58.755126953125
1.19251455794138E-06,-58.7120170593262
1.19803545867259E-06,-58.6270065307617
1.2035563594038E-06,-58.5069923400879
1.20907726013501E-06,-58.3584213256836
1.21459816086622E-06,-58.1877326965332
1.22011906159743E-06,-58.0013694763184
1.22563996232864E-06,-57.805778503418
1.23116086305985E-06,-57.6074028015137
1.23668176379106E-06,-57.4126853942871
1.24220266452227E-06,-57.2280693054199
1.24772356525348E-06,-57.060001373291
1.25324446598469E-06,-56.9149208068848
1.2587653667159E-06,-56.7915649414063
1.26428626744711E-06,-56.6495018005371
1.26980716817832E-06,-56.4898796081543
1.27532806890953E-06,-56.3223037719727
1.28084896964074E-06,-56.1563720703125
1.28636987037195E-06,-56.0016860961914
1.29189077110316E-06,-55.8678550720215
1.29741167183437E-06,-55.7644691467285
1.30293257256558E-06,-55.7011375427246
1.30845347329679E-06,-55.6874618530273
1.313974374028E-06,-55.733039855957
1.31949527475921E-06,-55.8474731445313
1.32501617549042E-06,-56.0451507568359
1.33053707622163E-06,-56.3654975891113
1.33605797695284E-06,-56.7953948974609
1.34157887768405E-06,-57.3102722167969
1.34709977841526E-06,-57.8855628967285
1.35262067914647E-06,-58.4967041015625
1.35814157987768E-06,-59.1191215515137
1.36366248060889E-06,-59.7282524108887
1.3691833813401E-06,-60.2995300292969
1.37470428207131E-06,-60.8083839416504
1.38022518280252E-06,-61.2302474975586
1.38574608353373E-06,-61.5405578613281
1.39126698426494E-06,-61.717414855957
1.39678788499615E-06,-61.7814292907715
1.40230878572736E-06,-61.7540283203125
1.40782968645858E-06,-61.6493492126465
1.41335058718979E-06,-61.4815216064453
1.418871487921E-06,-61.2646751403809
1.42439238865221E-06,-61.0129470825195
1.42991328938342E-06,-60.7404632568359
1.43543419011463E-06,-60.4613609313965
1.44095509084584E-06,-60.1897659301758
1.44647599157705E-06,-59.9398155212402
1.45199689230826E-06,-59.7256393432617
1.45751779303947E-06,-59.5599365234375
1.46303869377068E-06,-59.423397064209
1.46855959450189E-06,-59.3022346496582
1.4740804952331E-06,-59.1921195983887
1.47960139596431E-06,-59.0887184143066
1.48512229669552E-06,-58.9877090454102
1.49064319742673E-06,-58.8847541809082
1.49616409815794E-06,-58.7755317687988
1.50168499888915E-06,-58.6557006835938
1.50720589962036E-06,-58.5209426879883
1.51272680035157E-06,-58.3669166564941
1.51824770108278E-06,-58.1893043518066
1.52376860181399E-06,-57.9843368530273
1.5292895025452E-06,-57.7688980102539
1.53481040327641E-06,-57.5498428344727
1.54033130400762E-06,-57.3235168457031
1.54585220473883E-06,-57.0862464904785
1.55137310547004E-06,-56.8343696594238
1.55689400620125E-06,-56.5642242431641
1.56241490693246E-06,-56.272144317627
1.56793580766367E-06,-55.954460144043
1.57345670839488E-06,-55.6075134277344
1.57897760912609E-06,-55.2276306152344
1.5844985098573E-06,-54.8111534118652
1.59001941058851E-06,-54.3542785644531
1.59554031131972E-06,-53.8429718017578
1.60106121205093E-06,-53.2762031555176
1.60658211278214E-06,-52.663143157959
1.61210301351335E-06,-52.0129585266113
1.61762391424456E-06,-51.3348197937012
1.62314481497577E-06,-50.6379051208496
1.62866571570698E-06,-49.9313774108887
1.63418661643819E-06,-49.2244110107422
1.6397075171694E-06,-48.5261764526367
1.64522841790061E-06,-47.8458442687988
1.65074931863182E-06,-47.1925888061523
1.65627021936303E-06,-46.5755386352539
1.66179112009424E-06,-45.9756889343262
1.66731202082545E-06,-45.373893737793
1.67283292155666E-06,-44.7735290527344
1.67835382228787E-06,-44.1779823303223
1.68387472301908E-06,-43.590633392334
1.68939562375029E-06,-43.0148620605469
1.6949165244815E-06,-42.4540519714355
1.70043742521271E-06,-41.9115867614746
1.70595832594392E-06,-41.3908462524414
1.71147922667513E-06,-40.8952140808105
1.71700012740634E-06,-40.4280738830566
1.72252102813755E-06,-39.9928016662598
1.72804192886876E-06,-39.5849609375
1.73356282959997E-06,-39.197078704834
1.73908373033118E-06,-38.8297386169434
1.74460463106239E-06,-38.4835319519043
1.7501255317936E-06,-38.1590576171875
1.75564643252481E-06,-37.8569107055664
1.76116733325602E-06,-37.5776824951172
1.76668823398723E-06,-37.3219680786133
1.77220913471844E-06,-37.0903663635254
1.77773003544965E-06,-36.8834686279297
1.78325093618086E-06,-36.7018699645996
1.78877183691207E-06,-36.5461654663086
1.79429273764328E-06,-36.4167404174805
1.79981363837449E-06,-36.3131904602051
1.8053345391057E-06,-36.2349700927734
1.81085543983691E-06,-36.1815376281738
1.81637634056812E-06,-36.1523399353027
1.82189724129933E-06,-36.1468353271484
1.82741814203054E-06,-36.1644744873047
1.83293904276175E-06,-36.2047157287598
1.83845994349296E-06,-36.2670135498047
1.84398084422417E-06,-36.3508148193359
1.84950174495538E-06,-36.4555816650391
1.85502264568659E-06,-36.5807647705078
1.8605435464178E-06,-36.7306594848633
1.86606444714901E-06,-36.9128303527832
1.87158534788022E-06,-37.1242561340332
1.87710624861143E-06,-37.3616485595703
1.88262714934264E-06,-37.621711730957
1.88814805007385E-06,-37.9011459350586
1.89366895080506E-06,-38.196662902832
1.89918985153627E-06,-38.5049667358398
1.90471075226748E-06,-38.8227615356445
1.91023165299869E-06,-39.1467514038086
1.9157525537299E-06,-39.4736480712891
1.92127345446111E-06,-39.8001480102539
1.92679435519232E-06,-40.1330184936523
1.93231525592353E-06,-40.493335723877
1.93783615665474E-06,-40.8763275146484
1.94335705738595E-06,-41.2758865356445
1.94887795811716E-06,-41.6859169006348
1.95439885884837E-06,-42.1003150939941
1.95991975957958E-06,-42.5129814147949
1.9654406603108E-06,-42.9178085327148
1.970961561042E-06,-43.3087005615234
1.97648246177322E-06,-43.6795539855957
1.98200336250443E-06,-44.0242652893066
1.98752426323564E-06,-44.3367347717285
1.99304516396685E-06,-44.6155242919922
1.99856606469806E-06,-44.8733863830566
2.00408696542927E-06,-45.1125984191895
2.00960786616048E-06,-45.334342956543
2.01512876689169E-06,-45.5397987365723
2.0206496676229E-06,-45.7301483154297
2.02617056835411E-06,-45.9065742492676
2.03169146908532E-06,-46.0702590942383
2.03721236981653E-06,-46.2223854064941
2.04273327054774E-06,-46.3641319274902
2.04825417127895E-06,-46.4966850280762
2.05377507201016E-06,-46.6212272644043
2.05929597274137E-06,-46.7356834411621
2.06481687347258E-06,-46.8281631469727
2.07033777420379E-06,-46.9006080627441
2.075858674935E-06,-46.9566841125488
2.08137957566621E-06,-47.0000534057617
2.08690047639742E-06,-47.0343704223633
2.09242137712863E-06,-47.0632972717285
2.09794227785984E-06,-47.0904960632324
2.10346317859105E-06,-47.1196250915527
2.10898407932226E-06,-47.1543464660645
2.11450498005347E-06,-47.198314666748
2.12002588078468E-06,-47.2551956176758
2.12554678151589E-06,-47.3268814086914
2.1310676822471E-06,-47.4052581787109
2.13658858297831E-06,-47.4884033203125
2.14210948370952E-06,-47.5758628845215
2.14763038444073E-06,-47.6671943664551
2.15315128517194E-06,-47.7619361877441
2.15867218590315E-06,-47.8596458435059
2.16419308663436E-06,-47.9598693847656
2.16971398736557E-06,-48.0621566772461
2.17523488809678E-06,-48.1660537719727
2.18075578882799E-06,-48.2711143493652
2.1862766895592E-06,-48.3768882751465
2.19179759029041E-06,-48.4827499389648
2.19731849102162E-06,-48.5874137878418
2.20283939175283E-06,-48.6914520263672
2.20836029248404E-06,-48.7958145141602
2.21388119321525E-06,-48.901439666748
2.21940209394646E-06,-49.0092697143555
2.22492299467767E-06,-49.1202430725098
2.23044389540888E-06,-49.2353096008301
2.23596479614009E-06,-49.3554000854492
2.2414856968713E-06,-49.4814643859863
2.24700659760251E-06,-49.6144371032715
2.25252749833372E-06,-49.7552680969238
2.25804839906493E-06,-49.9038734436035
2.26356929979614E-06,-50.0502319335938
2.26909020052735E-06,-50.1940078735352
2.27461110125856E-06,-50.3382682800293
2.28013200198977E-06,-50.4860877990723
2.28565290272098E-06,-50.6405410766602
2.29117380345219E-06,-50.8047027587891
2.2966947041834E-06,-50.9816513061523
2.30221560491461E-06,-51.1744499206543
2.30773650564582E-06,-51.3861846923828
2.31325740637703E-06,-51.6199188232422
2.31877830710824E-06,-51.878734588623
2.32429920783945E-06,-52.1650772094727
2.32982010857066E-06,-52.4703712463379
2.33534100930187E-06,-52.7915534973145
2.34086191003308E-06,-53.1293907165527
2.34638281076429E-06,-53.4846420288086
2.3519037114955E-06,-53.8580741882324
2.35742461222671E-06,-54.2504501342773
2.36294551295792E-06,-54.6625328063965
2.36846641368913E-06,-55.0950889587402
2.37398731442034E-06,-55.5488777160645
2.37950821515155E-06,-56.0246696472168
2.38502911588276E-06,-56.5232200622559
2.39055001661397E-06,-57.0466041564941
2.39607091734518E-06,-57.6316871643066
2.40159181807639E-06,-58.283145904541
2.4071127188076E-06,-58.9848976135254
2.41263361953881E-06,-59.7208557128906
2.41815452027002E-06,-60.4749374389648
2.42367542100123E-06,-61.2310600280762
2.42919632173244E-06,-61.9731407165527
2.43471722246365E-06,-62.6850929260254
2.44023812319486E-06,-63.350830078125
2.44575902392607E-06,-63.9542770385742
2.45127992465728E-06,-64.4793395996094
2.45680082538849E-06,-64.9104385375977
2.4623217261197E-06,-65.2703094482422
2.46784262685091E-06,-65.5802230834961
2.47336352758212E-06,-65.8423614501953
2.47888442831333E-06,-66.0588760375977
2.48440532904454E-06,-66.2319488525391
2.48992622977575E-06,-66.3637237548828
2.49544713050696E-06,-66.4563903808594
2.50096803123817E-06,-66.5121002197266
2.50648893196938E-06,-66.5330276489258
2.51200983270059E-06,-66.5213317871094
2.5175307334318E-06,-66.4791793823242
2.52305163416301E-06,-66.4086990356445
2.52857253489422E-06,-66.2971496582031
2.53409343562543E-06,-66.1365356445313
2.53961433635665E-06,-65.9316101074219
2.54513523708785E-06,-65.6871185302734
2.55065613781907E-06,-65.4078140258789
2.55617703855028E-06,-65.0984420776367
2.56169793928149E-06,-64.7637557983398
2.5672188400127E-06,-64.4085159301758
2.57273974074391E-06,-64.0374526977539
2.57826064147512E-06,-63.6553382873535
2.58378154220633E-06,-63.2669143676758
2.58930244293754E-06,-62.8769264221191
2.59482334366875E-06,-62.4581642150879
2.60034424439996E-06,-61.9859161376953
2.60586514513117E-06,-61.472541809082
2.61138604586238E-06,-60.9304122924805
2.61690694659359E-06,-60.371898651123
2.6224278473248E-06,-59.8093681335449
2.62794874805601E-06,-59.2551918029785
2.63346964878722E-06,-58.7217407226563
2.63899054951843E-06,-58.2213821411133
2.64451145024964E-06,-57.7664909362793
2.65003235098085E-06,-57.3694343566895
2.65555325171206E-06,-57.0425796508789
2.66107415244327E-06,-56.7593994140625
2.66659505317448E-06,-56.4759635925293
2.67211595390569E-06,-56.2029495239258
2.6776368546369E-06,-55.9514617919922
2.68315775536811E-06,-55.732593536377
2.68867865609932E-06,-55.5574531555176
2.69419955683053E-06,-55.4371337890625
2.69972045756174E-06,-55.3827438354492
2.70524135829295E-06,-55.4053764343262
2.71076225902416E-06,-55.5161361694336
2.71628315975537E-06,-55.7261199951172
2.72180406048658E-06,-56.0464286804199
